0,0
0.000512820512820513,0
0.00102564102564103,0
0.00153846153846154,0
0.00205128205128205,0
0.00256410256410256,0
0.00307692307692308,0
0.00358974358974359,0
0.0041025641025641,0
0.00461538461538462,0
0.00512820512820513,0
0.00564102564102564,0
0.00615384615384615,0
0.00666666666666667,0
0.00717948717948718,0
0.00769230769230769,0
0.00820512820512821,0
0.00871794871794872,0
0.00923076923076923,0
0.00974358974358974,0
0.0102564102564103,0
0.0107692307692308,0
0.0112820512820513,0
0.0117948717948718,0
0.0123076923076923,0
0.0128205128205128,0
0.0133333333333333,0
0.0138461538461538,0
0.0143589743589744,0
0.0148717948717949,0
0.0153846153846154,0
0.0158974358974359,0
0.0164102564102564,0
0.0169230769230769,0
0.0174358974358974,0
0.0179487179487179,0
0.0184615384615385,0
0.018974358974359,0
0.0194871794871795,0
0.02,0
0.0205128205128205,0
0.021025641025641,0
0.0215384615384615,0
0.022051282051282,0
0.0225641025641026,0
0.0230769230769231,0
0.0235897435897436,0
0.0241025641025641,0
0.0246153846153846,0
0.0251282051282051,0
0.0256410256410256,0
0.0261538461538462,49.9999999999977
0.0266666666666667,99.9999999999977
0.0271794871794872,149.999999999998
0.0276923076923077,199.999999999998
0.0282051282051282,249.999999999998
0.0287179487179487,299.999999999998
0.0292307692307692,349.999999999998
0.0297435897435897,399.999999999998
0.0302564102564103,449.999999999998
0.0307692307692308,499.999999999998
0.0312820512820513,549.999999999998
0.0317948717948718,599.999999999998
0.0323076923076923,649.999999999998
0.0328205128205128,699.999999999998
0.0333333333333333,749.999999999998
0.0338461538461538,799.999999999998
0.0343589743589744,849.999999999998
0.0348717948717949,899.999999999998
0.0353846153846154,949.999999999998
0.0358974358974359,999.999999999998
0.0364102564102564,1050
0.0369230769230769,1100
0.0374358974358974,1150
0.037948717948718,1200
0.0384615384615385,1250
0.038974358974359,1300
0.0394871794871795,1350
0.04,1400
0.0405128205128205,1450
0.041025641025641,1500
0.0415384615384615,1550
0.0420512820512821,1600
0.0425641025641026,1650
0.0430769230769231,1700
0.0435897435897436,1750
0.0441025641025641,1800
0.0446153846153846,1850
0.0451282051282051,1900
0.0456410256410256,1950
0.0461538461538462,2000
0.0466666666666667,2050
0.0471794871794872,2100
0.0476923076923077,2150
0.0482051282051282,2200
0.0487179487179487,2250
0.0492307692307692,2300
0.0497435897435897,2350
0.0502564102564103,2400
0.0507692307692308,2450
0.0512820512820513,2500
0.0517948717948718,2550
0.0523076923076923,2600
0.0528205128205128,2650
0.0533333333333333,2700
0.0538461538461538,2750
0.0543589743589744,2800
0.0548717948717949,2850
0.0553846153846154,2900
0.0558974358974359,2950
0.0564102564102564,3000
0.0569230769230769,3050
0.0574358974358974,3100
0.0579487179487179,3150
0.0584615384615385,3200
0.058974358974359,3250
0.0594871794871795,3300
0.06,3350
0.0605128205128205,3400
0.061025641025641,3450
0.0615384615384615,3500
0.0620512820512821,3550
0.0625641025641026,3600
0.0630769230769231,3650
0.0635897435897436,3700
0.0641025641025641,3750
0.0646153846153846,3800
0.0651282051282051,3850
0.0656410256410256,3900
0.0661538461538462,3950
0.0666666666666667,4000
0.0671794871794872,4050
0.0676923076923077,4100
0.0682051282051282,4150
0.0687179487179487,4200
0.0692307692307692,4250
0.0697435897435897,4300
0.0702564102564103,4350
0.0707692307692308,4350
0.0712820512820513,4300
0.0717948717948718,4250
0.0723076923076923,4200
0.0728205128205128,4150
0.0733333333333333,4100
0.0738461538461539,4050
0.0743589743589744,4000
0.0748717948717949,3950
0.0753846153846154,3900
0.0758974358974359,3850
0.0764102564102564,3800
0.0769230769230769,3750
0.0774358974358974,3700
0.077948717948718,3650
0.0784615384615385,3600
0.078974358974359,3550
0.0794871794871795,3500
0.08,3450
0.0805128205128205,3400
0.081025641025641,3350
0.0815384615384615,3300
0.0820512820512821,3250
0.0825641025641026,3200
0.0830769230769231,3150
0.0835897435897436,3100
0.0841025641025641,3050
0.0846153846153846,3000
0.0851282051282051,2950
0.0856410256410256,2900
0.0861538461538462,2850
0.0866666666666667,2800
0.0871794871794872,2750
0.0876923076923077,2700
0.0882051282051282,2650
0.0887179487179487,2600
0.0892307692307692,2550
0.0897435897435897,2500
0.0902564102564103,2450
0.0907692307692308,2400
0.0912820512820513,2350
0.0917948717948718,2300
0.0923076923076923,2250
0.0928205128205128,2200
0.0933333333333333,2150
0.0938461538461538,2100
0.0943589743589744,2050
0.0948717948717949,2000
0.0953846153846154,1950
0.0958974358974359,1900
0.0964102564102564,1850
0.0969230769230769,1800
0.0974358974358974,1750
0.0979487179487179,1700
0.0984615384615385,1650
0.098974358974359,1600
0.0994871794871795,1550
0.1,1500
0.100512820512821,1450
0.101025641025641,1400
0.101538461538462,1350
0.102051282051282,1300
0.102564102564103,1250
0.103076923076923,1200
0.103589743589744,1150
0.104102564102564,1100
0.104615384615385,1050
0.105128205128205,1000
0.105641025641026,950.000000000004
0.106153846153846,900.000000000004
0.106666666666667,850.000000000004
0.107179487179487,800.000000000004
0.107692307692308,750.000000000004
0.108205128205128,700.000000000004
0.108717948717949,650.000000000004
0.109230769230769,600.000000000004
0.10974358974359,550.000000000004
0.11025641025641,500.000000000004
0.110769230769231,450.000000000004
0.111282051282051,400.000000000004
0.111794871794872,350.000000000004
0.112307692307692,300.000000000004
0.112820512820513,250.000000000004
0.113333333333333,200.000000000004
0.113846153846154,150.000000000004
0.114358974358974,100.000000000004
0.114871794871795,50.0000000000036
0.115384615384615,3.63797880709171e-12
0.115897435897436,-49.9999999999964
0.116410256410256,-99.9999999999964
0.116923076923077,-149.999999999996
0.117435897435897,-199.999999999996
0.117948717948718,-249.999999999996
0.118461538461538,-299.999999999996
0.118974358974359,-349.999999999996
0.119487179487179,-399.999999999996
0.12,-449.999999999996
0.120512820512821,-499.999999999996
0.121025641025641,-549.999999999996
0.121538461538462,-599.999999999996
0.122051282051282,-600.000000000004
0.122564102564103,-550.000000000004
0.123076923076923,-500.000000000004
0.123589743589744,-450.000000000004
0.124102564102564,-400.000000000005
0.124615384615385,-350.000000000005
0.125128205128205,-300.000000000005
0.125641025641026,-250.000000000005
0.126153846153846,-200.000000000005
0.126666666666667,-150.000000000005
0.127179487179487,-100.000000000005
0.127692307692308,-50.0000000000055
0.128205128205128,-5.45696821063757e-12
0.128717948717949,0
0.129230769230769,0
0.12974358974359,0
0.13025641025641,0
0.130769230769231,0
0.131282051282051,0
0.131794871794872,0
0.132307692307692,0
0.132820512820513,0
0.133333333333333,0
0.133846153846154,0
0.134358974358974,0
0.134871794871795,0
0.135384615384615,0
0.135897435897436,0
0.136410256410256,0
0.136923076923077,0
0.137435897435897,0
0.137948717948718,0
0.138461538461538,0
0.138974358974359,0
0.139487179487179,0
0.14,0
0.140512820512821,0
0.141025641025641,0
0.141538461538462,0
0.142051282051282,0
0.142564102564103,0
0.143076923076923,0
0.143589743589744,0
0.144102564102564,0
0.144615384615385,0
0.145128205128205,0
0.145641025641026,0
0.146153846153846,0
0.146666666666667,0
0.147179487179487,0
0.147692307692308,0
0.148205128205128,0
0.148717948717949,0
0.149230769230769,0
0.14974358974359,0
0.15025641025641,0
0.150769230769231,0
0.151282051282051,0
0.151794871794872,0
0.152307692307692,0
0.152820512820513,0
0.153333333333333,0
0.153846153846154,0
0.154358974358974,0
0.154871794871795,0
0.155384615384615,0
0.155897435897436,0
0.156410256410256,0
0.156923076923077,0
0.157435897435897,0
0.157948717948718,0
0.158461538461538,0
0.158974358974359,0
0.159487179487179,0
0.16,0
0.160512820512821,0
0.161025641025641,0
0.161538461538462,0
0.162051282051282,0
0.162564102564103,0
0.163076923076923,0
0.163589743589744,0
0.164102564102564,0
0.164615384615385,0
0.165128205128205,0
0.165641025641026,0
0.166153846153846,0
0.166666666666667,0
0.167179487179487,0
0.167692307692308,0
0.168205128205128,0
0.168717948717949,0
0.169230769230769,0
0.16974358974359,0
0.17025641025641,0
0.170769230769231,0
0.171282051282051,0
0.171794871794872,0
0.172307692307692,0
0.172820512820513,0
0.173333333333333,0
0.173846153846154,0
0.174358974358974,0
0.174871794871795,0
0.175384615384615,0
0.175897435897436,0
0.176410256410256,0
0.176923076923077,0
0.177435897435897,0
0.177948717948718,0
0.178461538461538,0
0.178974358974359,0
0.179487179487179,0
0.18,0
0.180512820512821,0
0.181025641025641,0
0.181538461538462,0
0.182051282051282,0
0.182564102564103,0
0.183076923076923,0
0.183589743589744,0
0.184102564102564,0
0.184615384615385,0
0.185128205128205,0
0.185641025641026,0
0.186153846153846,0
0.186666666666667,0
0.187179487179487,0
0.187692307692308,0
0.188205128205128,0
0.188717948717949,0
0.189230769230769,0
0.18974358974359,0
0.19025641025641,0
0.190769230769231,0
0.191282051282051,0
0.191794871794872,0
0.192307692307692,0
0.192820512820513,0
0.193333333333333,0
0.193846153846154,0
0.194358974358974,0
0.194871794871795,0
0.195384615384615,0
0.195897435897436,0
0.196410256410256,0
0.196923076923077,0
0.197435897435897,0
0.197948717948718,0
0.198461538461538,0
0.198974358974359,0
0.199487179487179,0
0.2,0
0.200512820512821,52.6313758930456
0.201025641025641,74.3282675569979
0.201538461538462,90.905934288631
0.202051282051282,104.822012578407
0.202564102564103,117.029857960783
0.203076923076923,128.01909579781
0.203589743589744,138.08098357374
0.204102564102564,147.405546238018
0.204615384615385,156.12494995996
0.205128205128205,164.335549530545
0.205641025641026,172.11017860733
0.206153846153846,179.50549357115
0.206666666666667,186.566606780078
0.207179487179487,193.330140458948
0.207692307692308,199.826313471363
0.208205128205128,206.080411011016
0.208717948717949,212.113846673472
0.209230769230769,217.944947177034
0.20974358974359,223.589543473342
0.21025641025641,229.061423645426
0.210769230769231,234.372685173754
0.211282051282051,239.534012636779
0.211794871794872,244.554899287322
0.212307692307692,249.443825784929
0.212820512820513,254.20840580171
0.213333333333333,258.855505716039
0.213846153846154,263.391343821319
0.214358974358974,267.821573182088
0.214871794871795,272.151351318878
0.215384615384615,276.385399196283
0.215897435897436,280.528051457107
0.216410256410256,284.58329944146
0.216923076923077,288.55482821968
0.217435897435897,292.446048627819
0.217948717948718,296.260125106966
0.218461538461538,300
0.218974358974359,303.668414842307
0.219487179487179,307.267929089441
0.22,310.800936649525
0.220512820512821,314.269680527354
0.221025641025641,317.676265837634
0.221538461538462,321.022671404304
0.222051282051282,324.310760129544
0.222564102564103,327.542288288526
0.223076923076923,330.718913883074
0.223589743589744,333.842204168303
0.224102564102564,336.913642450311
0.224615384615385,339.934634239519
0.225128205128205,342.906512832886
0.225641025641026,345.830544388576
0.226153846153846,348.707932548461
0.226666666666667,351.539822656808
0.227179487179487,354.327305617522
0.227692307692308,357.071421427142
0.228205128205128,359.773162416351
0.228717948717949,362.433476228891
0.229230769230769,365.053268563492
0.22974358974359,367.63340570146
0.23025641025641,370.174716840108
0.230769230769231,372.677996249965
0.231282051282051,375.144005271786
0.231794871794872,377.573474167693
0.232307692307692,379.967103839267
0.232820512820513,382.325567424117
0.233333333333333,384.649511781284
0.233846153846154,386.939558874797
0.234358974358974,389.196307063799
0.234871794871795,391.420332306856
0.235384615384615,393.612189287318
0.235897435897436,395.772412465972
0.236410256410256,397.901517066661
0.236923076923077,400
0.237435897435897,402.068340729886
0.237948717948718,404.107002087074
0.238461538461538,406.116431033707
0.238974358974359,408.097059382377
0.239487179487179,410.049304472969
0.24,411.973569810276
0.240512820512821,413.870245665128
0.241025641025641,415.739709641549
0.241538461538462,417.582327212252
0.242051282051282,419.398452224606
0.242564102564103,421.188427379035
0.243076923076923,422.952584681651
0.243589743589744,424.691245872796
0.244102564102564,426.404722833039
0.244615384615385,428.093317968044
0.245128205128205,429.757324573638
0.245641025641026,431.397027182303
0.246153846153846,433.012701892219
0.246666666666667,434.604616679927
0.247179487179487,436.173031697567
0.247692307692308,437.71819955563
0.248205128205128,439.240365592044
0.248717948717949,440.739768128401
0.249230769230769,442.216638714053
0.24974358974359,443.671202358761
0.25025641025641,445.10367775454
0.250769230769231,446.514277487294
0.251282051282051,447.903208238808
0.251794871794872,449.27067097961
0.252307692307692,450.616861153192
0.252820512820513,451.94196885206
0.253333333333333,453.246178986025
0.253846153846154,454.529671443155
0.254358974358974,455.792621243748
0.254871794871795,457.035198687701
0.255384615384615,458.257569495584
0.255897435897436,459.459894943757
0.256410256410256,460.642331993806
0.256923076923077,461.80503341658
0.257435897435897,462.948147911104
0.257948717948718,464.071820218582
0.258461538461538,465.176191231762
0.258974358974359,466.261398099848
0.259487179487179,467.32757432918
0.26,468.37484987988
0.26051282051282,469.403351258637
0.261025641025641,470.413201607814
0.261538461538462,471.404520791032
0.262051282051282,472.377425475398
0.262564102564103,473.332029210514
0.263076923076923,474.268442504407
0.263589743589744,475.186772896513
0.264102564102564,476.08712502785
0.264615384615385,476.969600708473
0.265128205128205,477.834298982347
0.265641025641026,478.681316189734
0.266153846153846,479.510746027193
0.266666666666667,480.322679605294
0.267179487179487,481.117205504125
0.267692307692308,481.894409826699
0.268205128205128,482.654376250315
0.268717948717949,483.397186075977
0.269230769230769,484.122918275927
0.26974358974359,484.831649539365
0.27025641025641,485.52345431643
0.270769230769231,486.198404860494
0.271282051282051,486.856571268843
0.271794871794872,487.498021521785
0.272307692307692,488.122821520249
0.272820512820513,488.731035121935
0.273333333333333,489.322724176041
0.273846153846154,489.897948556636
0.274358974358974,490.45676619471
0.274871794871795,490.999233108953
0.275384615384615,491.525403435288
0.275897435897436,492.035329455212
0.276410256410256,492.529061622977
0.276923076923077,493.006648591635
0.277435897435897,493.468137237994
0.277948717948718,493.913572686508
0.278461538461538,494.34299833213
0.278974358974359,494.756455862158
0.279487179487179,495.153985277108
0.28,495.535624910617
0.280512820512821,495.901411448428
0.281025641025641,496.25137994646
0.281538461538462,496.585563847986
0.282051282051282,496.903994999953
0.282564102564103,497.206703668444
0.283076923076923,497.49371855331
0.283589743589744,497.765066801995
0.284102564102564,498.020774022555
0.284615384615385,498.260864295892
0.285128205128205,498.485360187225
0.285641025641026,498.694282756802
0.286153846153846,498.887651569859
0.286666666666667,499.065484705856
0.287179487179487,499.227798766984
0.287692307692308,499.374608885955
0.288205128205128,499.505928733089
0.288717948717949,499.621770522709
0.289230769230769,499.722145018832
0.28974358974359,499.807061540183
0.29025641025641,499.876527964533
0.290769230769231,499.930550732355
0.291282051282051,499.969134849812
0.291794871794872,499.992283891079
0.292307692307692,500
0.292820512820513,499.992283891079
0.293333333333333,499.969134849812
0.293846153846154,499.930550732355
0.294358974358974,499.876527964533
0.294871794871795,499.807061540183
0.295384615384615,499.722145018832
0.295897435897436,499.621770522709
0.296410256410256,499.505928733089
0.296923076923077,499.374608885955
0.297435897435897,499.227798766984
0.297948717948718,499.065484705856
0.298461538461538,498.887651569859
0.298974358974359,498.694282756802
0.29948717948718,498.485360187225
0.3,498.260864295892
0.300512820512821,498.020774022555
0.301025641025641,497.765066801995
0.301538461538462,497.49371855331
0.302051282051282,497.206703668444
0.302564102564103,496.903994999953
0.303076923076923,496.585563847986
0.303589743589744,496.25137994646
0.304102564102564,495.901411448428
0.304615384615385,495.535624910617
0.305128205128205,495.153985277108
0.305641025641026,494.756455862158
0.306153846153846,494.34299833213
0.306666666666667,493.913572686508
0.307179487179487,493.468137237994
0.307692307692308,493.006648591635
0.308205128205128,492.529061622977
0.308717948717949,492.035329455212
0.309230769230769,491.525403435288
0.30974358974359,490.999233108953
0.31025641025641,490.45676619471
0.310769230769231,489.897948556636
0.311282051282051,489.322724176041
0.311794871794872,488.731035121935
0.312307692307692,488.122821520249
0.312820512820513,487.498021521785
0.313333333333333,486.856571268843
0.313846153846154,486.198404860494
0.314358974358974,485.52345431643
0.314871794871795,484.831649539365
0.315384615384615,484.122918275927
0.315897435897436,483.397186075977
0.316410256410256,482.654376250315
0.316923076923077,481.894409826699
0.317435897435897,481.117205504125
0.317948717948718,480.322679605294
0.318461538461538,479.510746027193
0.318974358974359,478.681316189734
0.319487179487179,477.834298982347
0.32,476.969600708473
0.320512820512821,476.08712502785
0.321025641025641,475.186772896513
0.321538461538462,474.268442504407
0.322051282051282,473.332029210514
0.322564102564103,472.377425475398
0.323076923076923,471.404520791032
0.323589743589744,470.413201607814
0.324102564102564,469.403351258637
0.324615384615385,468.37484987988
0.325128205128205,467.32757432918
0.325641025641026,466.261398099848
0.326153846153846,465.176191231762
0.326666666666667,464.071820218582
0.327179487179487,462.948147911104
0.327692307692308,461.80503341658
0.328205128205128,460.642331993806
0.328717948717949,459.459894943757
0.329230769230769,458.257569495584
0.32974358974359,457.035198687701
0.33025641025641,455.792621243748
0.330769230769231,454.529671443155
0.331282051282051,453.246178986025
0.331794871794872,451.94196885206
0.332307692307692,450.616861153192
0.332820512820513,449.27067097961
0.333333333333333,447.903208238808
0.333846153846154,446.514277487294
0.334358974358974,445.10367775454
0.334871794871795,443.671202358761
0.335384615384615,442.216638714053
0.335897435897436,440.739768128401
0.336410256410256,439.240365592044
0.336923076923077,437.71819955563
0.337435897435897,436.173031697567
0.337948717948718,434.604616679927
0.338461538461538,433.012701892219
0.338974358974359,431.397027182303
0.339487179487179,429.757324573638
0.34,428.093317968044
0.340512820512821,426.404722833039
0.341025641025641,424.691245872796
0.341538461538462,422.952584681651
0.342051282051282,421.188427379035
0.342564102564103,419.398452224606
0.343076923076923,417.582327212252
0.343589743589744,415.739709641549
0.344102564102564,413.870245665128
0.344615384615385,411.973569810276
0.345128205128205,410.049304472969
0.345641025641026,408.097059382377
0.346153846153846,406.116431033707
0.346666666666667,404.107002087074
0.347179487179487,402.068340729886
0.347692307692308,400
0.348205128205128,397.901517066661
0.348717948717949,395.772412465972
0.349230769230769,393.612189287318
0.34974358974359,391.420332306856
0.35025641025641,389.196307063799
0.350769230769231,386.939558874797
0.351282051282051,384.649511781284
0.351794871794872,382.325567424117
0.352307692307692,379.967103839267
0.352820512820513,377.573474167693
0.353333333333333,375.144005271786
0.353846153846154,372.677996249965
0.354358974358974,370.174716840108
0.354871794871795,367.63340570146
0.355384615384615,365.053268563492
0.355897435897436,362.433476228891
0.356410256410256,359.773162416351
0.356923076923077,357.071421427142
0.357435897435897,354.327305617522
0.357948717948718,351.539822656808
0.358461538461538,348.707932548461
0.358974358974359,345.830544388576
0.35948717948718,342.906512832886
0.36,339.934634239519
0.360512820512821,336.913642450311
0.361025641025641,333.842204168303
0.361538461538462,330.718913883074
0.362051282051282,327.542288288526
0.362564102564103,324.310760129544
0.363076923076923,321.022671404304
0.363589743589744,317.676265837634
0.364102564102564,314.269680527354
0.364615384615385,310.800936649525
0.365128205128205,307.267929089441
0.365641025641026,303.668414842307
0.366153846153846,300
0.366666666666667,296.260125106966
0.367179487179487,292.446048627819
0.367692307692308,288.55482821968
0.368205128205128,284.58329944146
0.368717948717949,280.528051457107
0.369230769230769,276.385399196283
0.36974358974359,272.151351318878
0.37025641025641,267.821573182088
0.370769230769231,263.391343821319
0.371282051282051,258.855505716039
0.371794871794872,254.20840580171
0.372307692307692,249.443825784929
0.372820512820513,244.554899287322
0.373333333333333,239.534012636779
0.373846153846154,234.372685173754
0.374358974358974,229.061423645426
0.374871794871795,223.589543473342
0.375384615384615,217.944947177034
0.375897435897436,212.113846673472
0.376410256410256,206.080411011016
0.376923076923077,199.826313471363
0.377435897435897,193.330140458948
0.377948717948718,186.566606780078
0.378461538461538,179.50549357115
0.378974358974359,172.11017860733
0.379487179487179,164.335549530545
0.38,156.12494995996
0.380512820512821,147.405546238018
0.381025641025641,138.08098357374
0.381538461538462,128.01909579781
0.382051282051282,117.029857960783
0.382564102564103,104.822012578407
0.383076923076923,90.905934288631
0.383589743589744,74.3282675569979
0.384102564102564,52.6313758930456
0.384615384615385,0
0.385128205128205,0
0.385641025641026,0
0.386153846153846,0
0.386666666666667,0
0.387179487179487,0
0.387692307692308,0
0.388205128205128,0
0.388717948717949,0
0.389230769230769,0
0.38974358974359,0
0.39025641025641,0
0.390769230769231,0
0.391282051282051,0
0.391794871794872,0
0.392307692307692,0
0.392820512820513,0
0.393333333333333,0
0.393846153846154,0
0.394358974358974,0
0.394871794871795,0
0.395384615384615,0
0.395897435897436,0
0.396410256410256,0
0.396923076923077,0
0.397435897435897,0
0.397948717948718,0
0.398461538461538,0
0.398974358974359,0
0.399487179487179,0
0.4,0
0.40051282051282,0
0.401025641025641,0
0.401538461538462,0
0.402051282051282,0
0.402564102564103,0
0.403076923076923,0
0.403589743589744,0
0.404102564102564,0
0.404615384615385,0
0.405128205128205,0
0.405641025641026,0
0.406153846153846,0
0.406666666666667,0
0.407179487179487,0
0.407692307692308,0
0.408205128205128,0
0.408717948717949,0
0.409230769230769,0
0.40974358974359,0
0.41025641025641,7.27595761418343e-12
0.410769230769231,50.0000000000073
0.411282051282051,100.000000000007
0.411794871794872,150.000000000007
0.412307692307692,200.000000000007
0.412820512820513,250.000000000007
0.413333333333333,300.000000000007
0.413846153846154,350.000000000007
0.414358974358974,400.000000000007
0.414871794871795,450.000000000007
0.415384615384615,500.000000000007
0.415897435897436,550.000000000007
0.416410256410256,600.000000000007
0.416923076923077,650
0.417435897435897,700
0.417948717948718,750
0.418461538461538,800
0.418974358974359,850
0.41948717948718,900
0.42,950
0.420512820512821,1000
0.421025641025641,1050
0.421538461538462,1100
0.422051282051282,1150
0.422564102564103,1200
0.423076923076923,1250
0.423589743589744,1300
0.424102564102564,1350
0.424615384615385,1400
0.425128205128205,1450
0.425641025641026,1500
0.426153846153846,1550
0.426666666666667,1600
0.427179487179487,1650
0.427692307692308,1700
0.428205128205128,1750
0.428717948717949,1800
0.429230769230769,1850
0.42974358974359,1900
0.43025641025641,1950
0.430769230769231,2000
0.431282051282051,2050
0.431794871794872,2100
0.432307692307692,2150
0.432820512820513,2200
0.433333333333333,2250
0.433846153846154,2300
0.434358974358974,2350
0.434871794871795,2400
0.435384615384615,2450
0.435897435897436,2500
0.436410256410256,2550
0.436923076923077,2600
0.437435897435897,2650
0.437948717948718,2700
0.438461538461538,2750
0.438974358974359,2800
0.439487179487179,2850
0.44,2900
0.440512820512821,2950
0.441025641025641,3000
0.441538461538462,3050
0.442051282051282,3100
0.442564102564103,3150
0.443076923076923,3200
0.443589743589744,3250
0.444102564102564,3300
0.444615384615385,3350
0.445128205128205,3400
0.445641025641026,3450
0.446153846153846,3500
0.446666666666667,3550
0.447179487179487,3600
0.447692307692308,3650
0.448205128205128,3700
0.448717948717949,3750
0.449230769230769,3800
0.44974358974359,3850
0.45025641025641,3900
0.450769230769231,3950
0.451282051282051,4000
0.451794871794872,4050
0.452307692307692,4100
0.452820512820513,4150
0.453333333333333,4200
0.453846153846154,4250
0.454358974358974,4300
0.454871794871795,4350
0.455384615384615,4349.99999999999
0.455897435897436,4299.99999999999
0.456410256410256,4249.99999999999
0.456923076923077,4199.99999999999
0.457435897435897,4149.99999999999
0.457948717948718,4099.99999999999
0.458461538461538,4049.99999999999
0.458974358974359,3999.99999999999
0.459487179487179,3949.99999999999
0.46,3899.99999999999
0.46051282051282,3849.99999999999
0.461025641025641,3799.99999999999
0.461538461538462,3749.99999999999
0.462051282051282,3699.99999999999
0.462564102564103,3649.99999999999
0.463076923076923,3599.99999999999
0.463589743589744,3549.99999999999
0.464102564102564,3499.99999999999
0.464615384615385,3449.99999999999
0.465128205128205,3399.99999999999
0.465641025641026,3349.99999999999
0.466153846153846,3299.99999999999
0.466666666666667,3249.99999999999
0.467179487179487,3199.99999999999
0.467692307692308,3149.99999999999
0.468205128205128,3099.99999999999
0.468717948717949,3049.99999999999
0.469230769230769,2999.99999999999
0.46974358974359,2949.99999999999
0.47025641025641,2899.99999999999
0.470769230769231,2849.99999999999
0.471282051282051,2799.99999999999
0.471794871794872,2749.99999999999
0.472307692307692,2699.99999999999
0.472820512820513,2649.99999999999
0.473333333333333,2599.99999999999
0.473846153846154,2549.99999999999
0.474358974358974,2499.99999999999
0.474871794871795,2449.99999999999
0.475384615384615,2399.99999999999
0.475897435897436,2349.99999999999
0.476410256410256,2299.99999999999
0.476923076923077,2249.99999999999
0.477435897435897,2199.99999999999
0.477948717948718,2149.99999999999
0.478461538461538,2099.99999999999
0.478974358974359,2049.99999999999
0.47948717948718,1999.99999999999
0.48,1949.99999999999
0.480512820512821,1899.99999999999
0.481025641025641,1850
0.481538461538462,1799.99999999999
0.482051282051282,1749.99999999999
0.482564102564103,1699.99999999999
0.483076923076923,1649.99999999999
0.483589743589744,1599.99999999999
0.484102564102564,1549.99999999999
0.484615384615385,1499.99999999999
0.485128205128205,1449.99999999999
0.485641025641026,1399.99999999999
0.486153846153846,1349.99999999999
0.486666666666667,1299.99999999999
0.487179487179487,1249.99999999999
0.487692307692308,1199.99999999999
0.488205128205128,1149.99999999999
0.488717948717949,1099.99999999999
0.489230769230769,1049.99999999999
0.48974358974359,999.999999999993
0.49025641025641,949.999999999993
0.490769230769231,899.999999999993
0.491282051282051,849.999999999993
0.491794871794872,799.999999999993
0.492307692307692,749.999999999993
0.492820512820513,699.999999999993
0.493333333333333,649.999999999993
0.493846153846154,599.999999999993
0.494358974358974,549.999999999993
0.494871794871795,499.999999999993
0.495384615384615,449.999999999993
0.495897435897436,399.999999999993
0.496410256410256,349.999999999993
0.496923076923077,299.999999999993
0.497435897435897,249.999999999993
0.497948717948718,199.999999999993
0.498461538461538,149.999999999993
0.498974358974359,99.9999999999927
0.499487179487179,49.9999999999927
0.5,-7.27595761418343e-12
0.500512820512821,-50.0000000000073
0.501025641025641,-100.000000000007
0.501538461538461,-150.000000000007
0.502051282051282,-200.000000000007
0.502564102564103,-250.000000000007
0.503076923076923,-300.000000000007
0.503589743589744,-350.000000000007
0.504102564102564,-400.000000000007
0.504615384615385,-450.000000000007
0.505128205128205,-500.000000000007
0.505641025641026,-550.000000000007
0.506153846153846,-600.000000000007
0.506666666666667,-600
0.507179487179487,-550
0.507692307692308,-500
0.508205128205128,-450
0.508717948717949,-400
0.509230769230769,-350
0.50974358974359,-300
0.51025641025641,-250
0.510769230769231,-200
0.511282051282051,-150
0.511794871794872,-100
0.512307692307692,-50
0.512820512820513,0
0.513333333333333,0
0.513846153846154,0
0.514358974358974,0
0.514871794871795,0
0.515384615384615,0
0.515897435897436,0
0.516410256410256,0
0.516923076923077,0
0.517435897435897,0
0.517948717948718,0
0.518461538461538,0
0.518974358974359,0
0.519487179487179,0
0.52,0
0.520512820512821,0
0.521025641025641,0
0.521538461538462,0
0.522051282051282,0
0.522564102564103,0
0.523076923076923,0
0.523589743589744,0
0.524102564102564,0
0.524615384615385,0
0.525128205128205,0
0.525641025641026,0
0.526153846153846,0
0.526666666666667,0
0.527179487179487,0
0.527692307692308,0
0.528205128205128,0
0.528717948717949,0
0.529230769230769,0
0.52974358974359,0
0.53025641025641,0
0.530769230769231,0
0.531282051282051,0
0.531794871794872,0
0.532307692307692,0
0.532820512820513,0
0.533333333333333,0
0.533846153846154,0
0.534358974358974,0
0.534871794871795,0
0.535384615384615,0
0.535897435897436,0
0.536410256410256,0
0.536923076923077,0
0.537435897435897,0
0.537948717948718,0
0.538461538461538,0
0.538974358974359,0
0.53948717948718,0
0.54,0
0.54051282051282,0
0.541025641025641,0
0.541538461538462,0
0.542051282051282,0
0.542564102564103,0
0.543076923076923,0
0.543589743589744,0
0.544102564102564,0
0.544615384615385,0
0.545128205128205,0
0.545641025641026,0
0.546153846153846,0
0.546666666666667,0
0.547179487179487,0
0.547692307692308,0
0.548205128205128,0
0.548717948717949,0
0.549230769230769,0
0.54974358974359,0
0.55025641025641,0
0.550769230769231,0
0.551282051282051,0
0.551794871794872,0
0.552307692307692,0
0.552820512820513,0
0.553333333333333,0
0.553846153846154,0
0.554358974358974,0
0.554871794871795,0
0.555384615384615,0
0.555897435897436,0
0.556410256410256,0
0.556923076923077,0
0.557435897435897,0
0.557948717948718,0
0.558461538461538,0
0.558974358974359,0
0.55948717948718,0
0.56,0
0.56051282051282,0
0.561025641025641,0
0.561538461538462,0
0.562051282051282,0
0.562564102564103,0
0.563076923076923,0
0.563589743589744,0
0.564102564102564,0
0.564615384615385,0
0.565128205128205,0
0.565641025641026,0
0.566153846153846,0
0.566666666666667,0
0.567179487179487,0
0.567692307692308,0
0.568205128205128,0
0.568717948717949,0
0.569230769230769,0
0.56974358974359,0
0.57025641025641,0
0.570769230769231,0
0.571282051282051,0
0.571794871794872,0
0.572307692307692,0
0.572820512820513,0
0.573333333333333,0
0.573846153846154,0
0.574358974358974,0
0.574871794871795,0
0.575384615384615,0
0.575897435897436,0
0.576410256410256,0
0.576923076923077,0
0.577435897435897,0
0.577948717948718,0
0.578461538461538,0
0.578974358974359,0
0.57948717948718,0
0.58,0
0.58051282051282,0
0.581025641025641,0
0.581538461538462,0
0.582051282051282,0
0.582564102564103,0
0.583076923076923,0
0.583589743589744,0
0.584102564102564,0
0.584615384615385,0
0.585128205128205,52.6313758930456
0.585641025641026,74.3282675569979
0.586153846153846,90.905934288631
0.586666666666667,104.822012578407
0.587179487179487,117.029857960783
0.587692307692308,128.01909579781
0.588205128205128,138.08098357374
0.588717948717949,147.405546238018
0.589230769230769,156.12494995996
0.58974358974359,164.335549530545
0.59025641025641,172.11017860733
0.590769230769231,179.50549357115
0.591282051282051,186.566606780078
0.591794871794872,193.330140458948
0.592307692307692,199.826313471363
0.592820512820513,206.080411011016
0.593333333333333,212.113846673472
0.593846153846154,217.944947177034
0.594358974358974,223.589543473342
0.594871794871795,229.061423645426
0.595384615384615,234.372685173754
0.595897435897436,239.534012636779
0.596410256410256,244.554899287322
0.596923076923077,249.443825784929
0.597435897435897,254.20840580171
0.597948717948718,258.855505716039
0.598461538461538,263.391343821319
0.598974358974359,267.821573182088
0.599487179487179,272.151351318878
0.6,276.385399196283
0.600512820512821,280.528051457107
0.601025641025641,284.58329944146
0.601538461538462,288.55482821968
0.602051282051282,292.446048627819
0.602564102564103,296.260125106966
0.603076923076923,300
0.603589743589744,303.668414842307
0.604102564102564,307.267929089441
0.604615384615385,310.800936649525
0.605128205128205,314.269680527354
0.605641025641026,317.676265837634
0.606153846153846,321.022671404304
0.606666666666667,324.310760129544
0.607179487179487,327.542288288526
0.607692307692308,330.718913883074
0.608205128205128,333.842204168303
0.608717948717949,336.913642450311
0.609230769230769,339.934634239519
0.60974358974359,342.906512832886
0.61025641025641,345.830544388576
0.610769230769231,348.707932548461
0.611282051282051,351.539822656808
0.611794871794872,354.327305617522
0.612307692307692,357.071421427142
0.612820512820513,359.773162416351
0.613333333333333,362.433476228891
0.613846153846154,365.053268563492
0.614358974358974,367.63340570146
0.614871794871795,370.174716840108
0.615384615384615,372.677996249965
0.615897435897436,375.144005271786
0.616410256410256,377.573474167693
0.616923076923077,379.967103839267
0.617435897435897,382.325567424117
0.617948717948718,384.649511781284
0.618461538461539,386.939558874797
0.618974358974359,389.196307063799
0.619487179487179,391.420332306856
0.62,393.612189287318
0.620512820512821,395.772412465972
0.621025641025641,397.901517066661
0.621538461538461,400
0.622051282051282,402.068340729886
0.622564102564103,404.107002087074
0.623076923076923,406.116431033707
0.623589743589744,408.097059382377
0.624102564102564,410.049304472969
0.624615384615385,411.973569810276
0.625128205128205,413.870245665128
0.625641025641026,415.739709641549
0.626153846153846,417.582327212252
0.626666666666667,419.398452224606
0.627179487179487,421.188427379035
0.627692307692308,422.952584681651
0.628205128205128,424.691245872796
0.628717948717949,426.404722833039
0.629230769230769,428.093317968044
0.62974358974359,429.757324573638
0.63025641025641,431.397027182303
0.630769230769231,433.012701892219
0.631282051282051,434.604616679927
0.631794871794872,436.173031697567
0.632307692307692,437.71819955563
0.632820512820513,439.240365592044
0.633333333333333,440.739768128401
0.633846153846154,442.216638714053
0.634358974358974,443.671202358761
0.634871794871795,445.10367775454
0.635384615384615,446.514277487294
0.635897435897436,447.903208238808
0.636410256410256,449.27067097961
0.636923076923077,450.616861153192
0.637435897435897,451.94196885206
0.637948717948718,453.246178986025
0.638461538461538,454.529671443155
0.638974358974359,455.792621243748
0.639487179487179,457.035198687701
0.64,458.257569495584
0.640512820512821,459.459894943757
0.641025641025641,460.642331993806
0.641538461538462,461.80503341658
0.642051282051282,462.948147911104
0.642564102564103,464.071820218582
0.643076923076923,465.176191231762
0.643589743589744,466.261398099848
0.644102564102564,467.32757432918
0.644615384615385,468.37484987988
0.645128205128205,469.403351258637
0.645641025641026,470.413201607814
0.646153846153846,471.404520791032
0.646666666666667,472.377425475398
0.647179487179487,473.332029210514
0.647692307692308,474.268442504407
0.648205128205128,475.186772896513
0.648717948717949,476.08712502785
0.649230769230769,476.969600708473
0.64974358974359,477.834298982347
0.65025641025641,478.681316189734
0.650769230769231,479.510746027193
0.651282051282051,480.322679605294
0.651794871794872,481.117205504125
0.652307692307692,481.894409826699
0.652820512820513,482.654376250315
0.653333333333333,483.397186075977
0.653846153846154,484.122918275927
0.654358974358974,484.831649539365
0.654871794871795,485.52345431643
0.655384615384615,486.198404860494
0.655897435897436,486.856571268843
0.656410256410256,487.498021521785
0.656923076923077,488.122821520249
0.657435897435897,488.731035121935
0.657948717948718,489.322724176041
0.658461538461538,489.897948556636
0.658974358974359,490.45676619471
0.659487179487179,490.999233108953
0.66,491.525403435288
0.660512820512821,492.035329455212
0.661025641025641,492.529061622977
0.661538461538462,493.006648591635
0.662051282051282,493.468137237994
0.662564102564103,493.913572686508
0.663076923076923,494.34299833213
0.663589743589744,494.756455862158
0.664102564102564,495.153985277108
0.664615384615385,495.535624910617
0.665128205128205,495.901411448428
0.665641025641026,496.25137994646
0.666153846153846,496.585563847986
0.666666666666667,496.903994999953
0.667179487179487,497.206703668444
0.667692307692308,497.49371855331
0.668205128205128,497.765066801995
0.668717948717949,498.020774022555
0.669230769230769,498.260864295892
0.66974358974359,498.485360187225
0.67025641025641,498.694282756802
0.670769230769231,498.887651569859
0.671282051282051,499.065484705856
0.671794871794872,499.227798766984
0.672307692307692,499.374608885955
0.672820512820513,499.505928733089
0.673333333333333,499.621770522709
0.673846153846154,499.722145018832
0.674358974358974,499.807061540183
0.674871794871795,499.876527964533
0.675384615384615,499.930550732355
0.675897435897436,499.969134849812
0.676410256410256,499.992283891079
0.676923076923077,500
0.677435897435897,499.992283891079
0.677948717948718,499.969134849812
0.678461538461538,499.930550732355
0.678974358974359,499.876527964533
0.67948717948718,499.807061540183
0.68,499.722145018832
0.68051282051282,499.621770522709
0.681025641025641,499.505928733089
0.681538461538462,499.374608885955
0.682051282051282,499.227798766984
0.682564102564103,499.065484705856
0.683076923076923,498.887651569859
0.683589743589744,498.694282756802
0.684102564102564,498.485360187225
0.684615384615385,498.260864295892
0.685128205128205,498.020774022555
0.685641025641026,497.765066801995
0.686153846153846,497.49371855331
0.686666666666667,497.206703668444
0.687179487179487,496.903994999953
0.687692307692308,496.585563847986
0.688205128205128,496.25137994646
0.688717948717949,495.901411448428
0.689230769230769,495.535624910617
0.68974358974359,495.153985277108
0.69025641025641,494.756455862158
0.690769230769231,494.34299833213
0.691282051282051,493.913572686508
0.691794871794872,493.468137237994
0.692307692307692,493.006648591635
0.692820512820513,492.529061622977
0.693333333333333,492.035329455212
0.693846153846154,491.525403435288
0.694358974358974,490.999233108953
0.694871794871795,490.45676619471
0.695384615384615,489.897948556636
0.695897435897436,489.322724176041
0.696410256410256,488.731035121935
0.696923076923077,488.122821520249
0.697435897435897,487.498021521785
0.697948717948718,486.856571268843
0.698461538461538,486.198404860494
0.698974358974359,485.52345431643
0.69948717948718,484.831649539365
0.7,484.122918275927
0.70051282051282,483.397186075977
0.701025641025641,482.654376250315
0.701538461538462,481.894409826699
0.702051282051282,481.117205504125
0.702564102564103,480.322679605294
0.703076923076923,479.510746027193
0.703589743589744,478.681316189734
0.704102564102564,477.834298982347
0.704615384615385,476.969600708473
0.705128205128205,476.08712502785
0.705641025641026,475.186772896513
0.706153846153846,474.268442504407
0.706666666666667,473.332029210514
0.707179487179487,472.377425475398
0.707692307692308,471.404520791032
0.708205128205128,470.413201607814
0.708717948717949,469.403351258637
0.709230769230769,468.37484987988
0.70974358974359,467.32757432918
0.71025641025641,466.261398099848
0.710769230769231,465.176191231762
0.711282051282051,464.071820218582
0.711794871794872,462.948147911104
0.712307692307692,461.80503341658
0.712820512820513,460.642331993806
0.713333333333333,459.459894943757
0.713846153846154,458.257569495584
0.714358974358974,457.035198687701
0.714871794871795,455.792621243748
0.715384615384615,454.529671443155
0.715897435897436,453.246178986025
0.716410256410256,451.94196885206
0.716923076923077,450.616861153192
0.717435897435897,449.27067097961
0.717948717948718,447.903208238808
0.718461538461538,446.514277487294
0.718974358974359,445.10367775454
0.719487179487179,443.671202358761
0.72,442.216638714053
0.720512820512821,440.739768128401
0.721025641025641,439.240365592044
0.721538461538462,437.71819955563
0.722051282051282,436.173031697567
0.722564102564103,434.604616679927
0.723076923076923,433.012701892219
0.723589743589744,431.397027182303
0.724102564102564,429.757324573638
0.724615384615385,428.093317968044
0.725128205128205,426.404722833039
0.725641025641026,424.691245872796
0.726153846153846,422.952584681651
0.726666666666667,421.188427379035
0.727179487179487,419.398452224606
0.727692307692308,417.582327212252
0.728205128205128,415.739709641549
0.728717948717949,413.870245665128
0.729230769230769,411.973569810276
0.72974358974359,410.049304472969
0.73025641025641,408.097059382377
0.730769230769231,406.116431033707
0.731282051282051,404.107002087074
0.731794871794872,402.068340729886
0.732307692307692,400
0.732820512820513,397.901517066661
0.733333333333333,395.772412465972
0.733846153846154,393.612189287318
0.734358974358974,391.420332306856
0.734871794871795,389.196307063799
0.735384615384615,386.939558874797
0.735897435897436,384.649511781284
0.736410256410256,382.325567424117
0.736923076923077,379.967103839267
0.737435897435897,377.573474167693
0.737948717948718,375.144005271786
0.738461538461539,372.677996249965
0.738974358974359,370.174716840108
0.739487179487179,367.63340570146
0.74,365.053268563492
0.740512820512821,362.433476228891
0.741025641025641,359.773162416351
0.741538461538462,357.071421427142
0.742051282051282,354.327305617522
0.742564102564103,351.539822656808
0.743076923076923,348.707932548461
0.743589743589744,345.830544388576
0.744102564102564,342.906512832886
0.744615384615385,339.934634239519
0.745128205128205,336.913642450311
0.745641025641026,333.842204168303
0.746153846153846,330.718913883074
0.746666666666667,327.542288288526
0.747179487179487,324.310760129544
0.747692307692308,321.022671404304
0.748205128205128,317.676265837634
0.748717948717949,314.269680527354
0.749230769230769,310.800936649525
0.74974358974359,307.267929089441
0.75025641025641,303.668414842307
0.750769230769231,300
0.751282051282051,296.260125106966
0.751794871794872,292.446048627819
0.752307692307692,288.55482821968
0.752820512820513,284.58329944146
0.753333333333333,280.528051457107
0.753846153846154,276.385399196283
0.754358974358974,272.151351318878
0.754871794871795,267.821573182088
0.755384615384615,263.391343821319
0.755897435897436,258.855505716039
0.756410256410256,254.20840580171
0.756923076923077,249.443825784929
0.757435897435897,244.554899287322
0.757948717948718,239.534012636779
0.758461538461538,234.372685173754
0.758974358974359,229.061423645426
0.759487179487179,223.589543473342
0.76,217.944947177034
0.760512820512821,212.113846673472
0.761025641025641,206.080411011016
0.761538461538461,199.826313471363
0.762051282051282,193.330140458948
0.762564102564103,186.566606780078
0.763076923076923,179.50549357115
0.763589743589744,172.11017860733
0.764102564102564,164.335549530545
0.764615384615385,156.12494995996
0.765128205128205,147.405546238018
0.765641025641026,138.08098357374
0.766153846153846,128.01909579781
0.766666666666667,117.029857960783
0.767179487179487,104.822012578407
0.767692307692308,90.905934288631
0.768205128205128,74.3282675569979
0.768717948717949,52.6313758930456
0.769230769230769,0
0.76974358974359,0
0.77025641025641,0
0.770769230769231,0
0.771282051282051,0
0.771794871794872,0
0.772307692307692,0
0.772820512820513,0
0.773333333333333,0
0.773846153846154,0
0.774358974358974,0
0.774871794871795,0
0.775384615384615,0
0.775897435897436,0
0.776410256410256,0
0.776923076923077,0
0.777435897435897,0
0.777948717948718,0
0.778461538461538,0
0.778974358974359,0
0.779487179487179,0
0.78,0
0.780512820512821,0
0.781025641025641,0
0.781538461538462,0
0.782051282051282,0
0.782564102564103,0
0.783076923076923,0
0.783589743589744,0
0.784102564102564,0
0.784615384615385,0
0.785128205128205,0
0.785641025641026,0
0.786153846153846,0
0.786666666666667,0
0.787179487179487,0
0.787692307692308,0
0.788205128205128,0
0.788717948717949,0
0.789230769230769,0
0.78974358974359,0
0.79025641025641,0
0.790769230769231,0
0.791282051282051,0
0.791794871794872,0
0.792307692307692,0
0.792820512820513,0
0.793333333333333,0
0.793846153846154,0
0.794358974358974,0
0.794871794871795,0
0.795384615384615,49.9999999999854
0.795897435897436,100
0.796410256410256,149.999999999985
0.796923076923077,200
0.797435897435897,249.999999999985
0.797948717948718,300
0.798461538461538,349.999999999985
0.798974358974359,400
0.79948717948718,449.999999999985
0.8,500
0.80051282051282,549.999999999985
0.801025641025641,600
0.801538461538462,649.999999999985
0.802051282051282,700
0.802564102564103,749.999999999985
0.803076923076923,800
0.803589743589744,849.999999999985
0.804102564102564,900
0.804615384615385,949.999999999985
0.805128205128205,1000
0.805641025641026,1049.99999999999
0.806153846153846,1100
0.806666666666667,1149.99999999999
0.807179487179487,1200
0.807692307692308,1249.99999999999
0.808205128205128,1300
0.808717948717949,1349.99999999999
0.809230769230769,1400
0.80974358974359,1449.99999999999
0.81025641025641,1500
0.810769230769231,1549.99999999999
0.811282051282051,1600
0.811794871794872,1649.99999999999
0.812307692307692,1700
0.812820512820513,1749.99999999999
0.813333333333333,1800
0.813846153846154,1849.99999999999
0.814358974358974,1900
0.814871794871795,1949.99999999999
0.815384615384615,2000
0.815897435897436,2049.99999999999
0.816410256410256,2100
0.816923076923077,2149.99999999999
0.817435897435897,2200
0.817948717948718,2249.99999999999
0.818461538461538,2300
0.818974358974359,2350
0.81948717948718,2400
0.82,2450
0.82051282051282,2500
0.821025641025641,2550
0.821538461538462,2600
0.822051282051282,2650
0.822564102564103,2700
0.823076923076923,2750
0.823589743589744,2800
0.824102564102564,2850
0.824615384615385,2900
0.825128205128205,2950
0.825641025641026,3000
0.826153846153846,3050
0.826666666666667,3100
0.827179487179487,3150
0.827692307692308,3200
0.828205128205128,3250
0.828717948717949,3300
0.829230769230769,3350
0.82974358974359,3400
0.83025641025641,3450
0.830769230769231,3500
0.831282051282051,3550
0.831794871794872,3600
0.832307692307692,3650
0.832820512820513,3700
0.833333333333333,3750
0.833846153846154,3799.99999999999
0.834358974358974,3850
0.834871794871795,3899.99999999999
0.835384615384615,3950
0.835897435897436,3999.99999999999
0.836410256410256,4050
0.836923076923077,4099.99999999999
0.837435897435897,4150
0.837948717948718,4199.99999999999
0.838461538461538,4250
0.838974358974359,4299.99999999999
0.839487179487179,4350
0.84,4350
0.840512820512821,4300
0.841025641025641,4250
0.841538461538462,4200
0.842051282051282,4150
0.842564102564103,4100
0.843076923076923,4050
0.843589743589744,4000
0.844102564102564,3950
0.844615384615385,3900
0.845128205128205,3850
0.845641025641026,3800
0.846153846153846,3750
0.846666666666667,3700
0.847179487179487,3650
0.847692307692308,3600
0.848205128205128,3550
0.848717948717949,3500
0.849230769230769,3450
0.84974358974359,3400
0.85025641025641,3350
0.850769230769231,3300
0.851282051282051,3250
0.851794871794872,3200
0.852307692307692,3150
0.852820512820513,3100
0.853333333333333,3050
0.853846153846154,3000
0.854358974358974,2950
0.854871794871795,2900
0.855384615384615,2850
0.855897435897436,2800
0.856410256410256,2750
0.856923076923077,2700
0.857435897435897,2650
0.857948717948718,2600
0.858461538461538,2550
0.858974358974359,2500
0.859487179487179,2450
0.86,2400
0.860512820512821,2350
0.861025641025641,2300
0.861538461538462,2250
0.862051282051282,2200
0.862564102564103,2150
0.863076923076923,2100
0.863589743589744,2050
0.864102564102564,2000
0.864615384615385,1950
0.865128205128205,1900
0.865641025641026,1850
0.866153846153846,1800
0.866666666666667,1750
0.867179487179487,1700
0.867692307692308,1650
0.868205128205128,1600
0.868717948717949,1550
0.869230769230769,1500
0.86974358974359,1450
0.87025641025641,1400
0.870769230769231,1350
0.871282051282051,1300
0.871794871794872,1250
0.872307692307692,1200
0.872820512820513,1150
0.873333333333333,1100
0.873846153846154,1050
0.874358974358974,1000
0.874871794871795,950
0.875384615384615,900
0.875897435897436,850
0.876410256410256,800
0.876923076923077,750
0.877435897435897,700
0.877948717948718,650
0.878461538461539,600
0.878974358974359,550
0.879487179487179,500
0.88,450
0.880512820512821,400
0.881025641025641,350
0.881538461538461,300
0.882051282051282,250
0.882564102564103,200
0.883076923076923,150
0.883589743589744,100
0.884102564102564,50
0.884615384615385,0
0.885128205128205,-50
0.885641025641026,-100
0.886153846153846,-150
0.886666666666667,-200
0.887179487179487,-250
0.887692307692308,-300
0.888205128205128,-350
0.888717948717949,-400
0.889230769230769,-450
0.88974358974359,-500
0.89025641025641,-550
0.890769230769231,-600
0.891282051282051,-600
0.891794871794872,-550
0.892307692307692,-500
0.892820512820513,-450
0.893333333333333,-400
0.893846153846154,-350
0.894358974358974,-300
0.894871794871795,-250
0.895384615384615,-200
0.895897435897436,-150
0.896410256410256,-100
0.896923076923077,-50
0.897435897435897,0
0.897948717948718,0
0.898461538461538,0
0.898974358974359,0
0.899487179487179,0
0.9,0
0.900512820512821,0
0.901025641025641,0
0.901538461538462,0
0.902051282051282,0
0.902564102564103,0
0.903076923076923,0
0.903589743589744,0
0.904102564102564,0
0.904615384615385,0
0.905128205128205,0
0.905641025641026,0
0.906153846153846,0
0.906666666666667,0
0.907179487179487,0
0.907692307692308,0
0.908205128205128,0
0.908717948717949,0
0.909230769230769,0
0.90974358974359,0
0.91025641025641,0
0.910769230769231,0
0.911282051282051,0
0.911794871794872,0
0.912307692307692,0
0.912820512820513,0
0.913333333333333,0
0.913846153846154,0
0.914358974358974,0
0.914871794871795,0
0.915384615384615,0
0.915897435897436,0
0.916410256410256,0
0.916923076923077,0
0.917435897435897,0
0.917948717948718,0
0.918461538461538,0
0.918974358974359,0
0.91948717948718,0
0.92,0
0.92051282051282,0
0.921025641025641,0
0.921538461538462,0
0.922051282051282,0
0.922564102564103,0
0.923076923076923,0
0.923589743589744,0
0.924102564102564,0
0.924615384615385,0
0.925128205128205,0
0.925641025641026,0
0.926153846153846,0
0.926666666666667,0
0.927179487179487,0
0.927692307692308,0
0.928205128205128,0
0.928717948717949,0
0.929230769230769,0
0.92974358974359,0
0.93025641025641,0
0.930769230769231,0
0.931282051282051,0
0.931794871794872,0
0.932307692307692,0
0.932820512820513,0
0.933333333333333,0
0.933846153846154,0
0.934358974358974,0
0.934871794871795,0
0.935384615384615,0
0.935897435897436,0
0.936410256410256,0
0.936923076923077,0
0.937435897435897,0
0.937948717948718,0
0.938461538461538,0
0.938974358974359,0
0.93948717948718,0
0.94,0
0.94051282051282,0
0.941025641025641,0
0.941538461538462,0
0.942051282051282,0
0.942564102564103,0
0.943076923076923,0
0.943589743589744,0
0.944102564102564,0
0.944615384615385,0
0.945128205128205,0
0.945641025641026,0
0.946153846153846,0
0.946666666666667,0
0.947179487179487,0
0.947692307692308,0
0.948205128205128,0
0.948717948717949,0
0.949230769230769,0
0.94974358974359,0
0.95025641025641,0
0.950769230769231,0
0.951282051282051,0
0.951794871794872,0
0.952307692307692,0
0.952820512820513,0
0.953333333333333,0
0.953846153846154,0
0.954358974358974,0
0.954871794871795,0
0.955384615384615,0
0.955897435897436,0
0.956410256410256,0
0.956923076923077,0
0.957435897435897,0
0.957948717948718,0
0.958461538461538,0
0.958974358974359,0
0.95948717948718,0
0.96,0
0.96051282051282,0
0.961025641025641,0
0.961538461538462,0
0.962051282051282,0
0.962564102564103,0
0.963076923076923,0
0.963589743589744,0
0.964102564102564,0
0.964615384615385,0
0.965128205128205,0
0.965641025641026,0
0.966153846153846,0
0.966666666666667,0
0.967179487179487,0
0.967692307692308,0
0.968205128205128,0
0.968717948717949,0
0.969230769230769,0
0.96974358974359,52.6313758930456
0.97025641025641,74.3282675569979
0.970769230769231,90.905934288631
0.971282051282051,104.822012578407
0.971794871794872,117.029857960783
0.972307692307692,128.01909579781
0.972820512820513,138.08098357374
0.973333333333333,147.405546238018
0.973846153846154,156.12494995996
0.974358974358974,164.335549530545
0.974871794871795,172.11017860733
0.975384615384615,179.50549357115
0.975897435897436,186.566606780078
0.976410256410256,193.330140458948
0.976923076923077,199.826313471363
0.977435897435897,206.080411011016
0.977948717948718,212.113846673472
0.978461538461538,217.944947177034
0.978974358974359,223.589543473342
0.979487179487179,229.061423645426
0.98,234.372685173754
0.980512820512821,239.534012636779
0.981025641025641,244.554899287322
0.981538461538462,249.443825784929
0.982051282051282,254.20840580171
0.982564102564103,258.855505716039
0.983076923076923,263.391343821319
0.983589743589744,267.821573182088
0.984102564102564,272.151351318878
0.984615384615385,276.385399196283
0.985128205128205,280.528051457107
0.985641025641026,284.58329944146
0.986153846153846,288.55482821968
0.986666666666667,292.446048627819
0.987179487179487,296.260125106966
0.987692307692308,300
0.988205128205128,303.668414842307
0.988717948717949,307.267929089441
0.989230769230769,310.800936649525
0.98974358974359,314.269680527354
0.99025641025641,317.676265837634
0.990769230769231,321.022671404304
0.991282051282051,324.310760129544
0.991794871794872,327.542288288526
0.992307692307692,330.718913883074
0.992820512820513,333.842204168303
0.993333333333333,336.913642450311
0.993846153846154,339.934634239519
0.994358974358974,342.906512832886
0.994871794871795,345.830544388576
0.995384615384615,348.707932548461
0.995897435897436,351.539822656808
0.996410256410256,354.327305617522
0.996923076923077,357.071421427142
0.997435897435897,359.773162416351
0.997948717948718,362.433476228891
0.998461538461539,365.053268563492
0.998974358974359,367.63340570146
0.999487179487179,370.174716840108
1,372.677996249965
1.00051282051282,375.144005271786
1.00102564102564,377.573474167693
1.00153846153846,379.967103839267
1.00205128205128,382.325567424117
1.0025641025641,384.649511781284
1.00307692307692,386.939558874797
1.00358974358974,389.196307063799
1.00410256410256,391.420332306856
1.00461538461538,393.612189287318
1.00512820512821,395.772412465972
1.00564102564103,397.901517066661
1.00615384615385,400
1.00666666666667,402.068340729886
1.00717948717949,404.107002087074
1.00769230769231,406.116431033707
1.00820512820513,408.097059382377
1.00871794871795,410.049304472969
1.00923076923077,411.973569810276
1.00974358974359,413.870245665128
1.01025641025641,415.739709641549
1.01076923076923,417.582327212252
1.01128205128205,419.398452224606
1.01179487179487,421.188427379035
1.01230769230769,422.952584681651
1.01282051282051,424.691245872796
1.01333333333333,426.404722833039
1.01384615384615,428.093317968044
1.01435897435897,429.757324573638
1.01487179487179,431.397027182303
1.01538461538462,433.012701892219
1.01589743589744,434.604616679927
1.01641025641026,436.173031697567
1.01692307692308,437.71819955563
1.0174358974359,439.240365592044
1.01794871794872,440.739768128401
1.01846153846154,442.216638714053
1.01897435897436,443.671202358761
1.01948717948718,445.10367775454
1.02,446.514277487294
1.02051282051282,447.903208238808
1.02102564102564,449.27067097961
1.02153846153846,450.616861153192
1.02205128205128,451.94196885206
1.0225641025641,453.246178986025
1.02307692307692,454.529671443155
1.02358974358974,455.792621243748
1.02410256410256,457.035198687701
1.02461538461538,458.257569495584
1.02512820512821,459.459894943757
1.02564102564103,460.642331993806
1.02615384615385,461.80503341658
1.02666666666667,462.948147911104
1.02717948717949,464.071820218582
1.02769230769231,465.176191231762
1.02820512820513,466.261398099848
1.02871794871795,467.32757432918
1.02923076923077,468.37484987988
1.02974358974359,469.403351258637
1.03025641025641,470.413201607814
1.03076923076923,471.404520791032
1.03128205128205,472.377425475398
1.03179487179487,473.332029210514
1.03230769230769,474.268442504407
1.03282051282051,475.186772896513
1.03333333333333,476.08712502785
1.03384615384615,476.969600708473
1.03435897435897,477.834298982347
1.03487179487179,478.681316189734
1.03538461538462,479.510746027193
1.03589743589744,480.322679605294
1.03641025641026,481.117205504125
1.03692307692308,481.894409826699
1.0374358974359,482.654376250315
1.03794871794872,483.397186075977
1.03846153846154,484.122918275927
1.03897435897436,484.831649539365
1.03948717948718,485.52345431643
1.04,486.198404860494
1.04051282051282,486.856571268843
1.04102564102564,487.498021521785
1.04153846153846,488.122821520249
1.04205128205128,488.731035121935
1.0425641025641,489.322724176041
1.04307692307692,489.897948556636
1.04358974358974,490.45676619471
1.04410256410256,490.999233108953
1.04461538461538,491.525403435288
1.04512820512821,492.035329455212
1.04564102564103,492.529061622977
1.04615384615385,493.006648591635
1.04666666666667,493.468137237994
1.04717948717949,493.913572686508
1.04769230769231,494.34299833213
1.04820512820513,494.756455862158
1.04871794871795,495.153985277108
1.04923076923077,495.535624910617
1.04974358974359,495.901411448428
1.05025641025641,496.25137994646
1.05076923076923,496.585563847986
1.05128205128205,496.903994999953
1.05179487179487,497.206703668444
1.05230769230769,497.49371855331
1.05282051282051,497.765066801995
1.05333333333333,498.020774022555
1.05384615384615,498.260864295892
1.05435897435897,498.485360187225
1.05487179487179,498.694282756802
1.05538461538462,498.887651569859
1.05589743589744,499.065484705856
1.05641025641026,499.227798766984
1.05692307692308,499.374608885955
1.0574358974359,499.505928733089
1.05794871794872,499.621770522709
1.05846153846154,499.722145018832
1.05897435897436,499.807061540183
1.05948717948718,499.876527964533
1.06,499.930550732355
1.06051282051282,499.969134849812
1.06102564102564,499.992283891079
1.06153846153846,500
1.06205128205128,499.992283891079
1.0625641025641,499.969134849812
1.06307692307692,499.930550732355
1.06358974358974,499.876527964533
1.06410256410256,499.807061540183
1.06461538461538,499.722145018832
1.06512820512821,499.621770522709
1.06564102564103,499.505928733089
1.06615384615385,499.374608885955
1.06666666666667,499.227798766984
1.06717948717949,499.065484705856
1.06769230769231,498.887651569859
1.06820512820513,498.694282756802
1.06871794871795,498.485360187225
1.06923076923077,498.260864295892
1.06974358974359,498.020774022555
1.07025641025641,497.765066801995
1.07076923076923,497.49371855331
1.07128205128205,497.206703668444
1.07179487179487,496.903994999953
1.07230769230769,496.585563847986
1.07282051282051,496.25137994646
1.07333333333333,495.901411448428
1.07384615384615,495.535624910617
1.07435897435897,495.153985277108
1.07487179487179,494.756455862158
1.07538461538462,494.34299833213
1.07589743589744,493.913572686508
1.07641025641026,493.468137237994
1.07692307692308,493.006648591635
1.0774358974359,492.529061622977
1.07794871794872,492.035329455212
1.07846153846154,491.525403435288
1.07897435897436,490.999233108953
1.07948717948718,490.45676619471
1.08,489.897948556636
1.08051282051282,489.322724176041
1.08102564102564,488.731035121935
1.08153846153846,488.122821520249
1.08205128205128,487.498021521785
1.0825641025641,486.856571268843
1.08307692307692,486.198404860494
1.08358974358974,485.52345431643
1.08410256410256,484.831649539365
1.08461538461538,484.122918275927
1.08512820512821,483.397186075977
1.08564102564103,482.654376250315
1.08615384615385,481.894409826699
1.08666666666667,481.117205504125
1.08717948717949,480.322679605294
1.08769230769231,479.510746027193
1.08820512820513,478.681316189734
1.08871794871795,477.834298982347
1.08923076923077,476.969600708473
1.08974358974359,476.08712502785
1.09025641025641,475.186772896513
1.09076923076923,474.268442504407
1.09128205128205,473.332029210514
1.09179487179487,472.377425475398
1.09230769230769,471.404520791032
1.09282051282051,470.413201607814
1.09333333333333,469.403351258637
1.09384615384615,468.37484987988
1.09435897435897,467.32757432918
1.09487179487179,466.261398099848
1.09538461538462,465.176191231762
1.09589743589744,464.071820218582
1.09641025641026,462.948147911104
1.09692307692308,461.80503341658
1.0974358974359,460.642331993806
1.09794871794872,459.459894943757
1.09846153846154,458.257569495584
1.09897435897436,457.035198687701
1.09948717948718,455.792621243748
1.1,454.529671443155
1.10051282051282,453.246178986025
1.10102564102564,451.94196885206
1.10153846153846,450.616861153192
1.10205128205128,449.27067097961
1.1025641025641,447.903208238808
1.10307692307692,446.514277487294
1.10358974358974,445.10367775454
1.10410256410256,443.671202358761
1.10461538461538,442.216638714053
1.10512820512821,440.739768128401
1.10564102564103,439.240365592044
1.10615384615385,437.71819955563
1.10666666666667,436.173031697567
1.10717948717949,434.604616679927
1.10769230769231,433.012701892219
1.10820512820513,431.397027182303
1.10871794871795,429.757324573638
1.10923076923077,428.093317968044
1.10974358974359,426.404722833039
1.11025641025641,424.691245872796
1.11076923076923,422.952584681651
1.11128205128205,421.188427379035
1.11179487179487,419.398452224606
1.11230769230769,417.582327212252
1.11282051282051,415.739709641549
1.11333333333333,413.870245665128
1.11384615384615,411.973569810276
1.11435897435897,410.049304472969
1.11487179487179,408.097059382377
1.11538461538462,406.116431033707
1.11589743589744,404.107002087074
1.11641025641026,402.068340729886
1.11692307692308,400
1.1174358974359,397.901517066661
1.11794871794872,395.772412465972
1.11846153846154,393.612189287318
1.11897435897436,391.420332306856
1.11948717948718,389.196307063799
1.12,386.939558874797
1.12051282051282,384.649511781284
1.12102564102564,382.325567424117
1.12153846153846,379.967103839267
1.12205128205128,377.573474167693
1.1225641025641,375.144005271786
1.12307692307692,372.677996249965
1.12358974358974,370.174716840108
1.12410256410256,367.63340570146
1.12461538461538,365.053268563492
1.12512820512821,362.433476228891
1.12564102564103,359.773162416351
1.12615384615385,357.071421427142
1.12666666666667,354.327305617522
1.12717948717949,351.539822656808
1.12769230769231,348.707932548461
1.12820512820513,345.830544388576
1.12871794871795,342.906512832886
1.12923076923077,339.934634239519
1.12974358974359,336.913642450311
1.13025641025641,333.842204168303
1.13076923076923,330.718913883074
1.13128205128205,327.542288288526
1.13179487179487,324.310760129544
1.13230769230769,321.022671404304
1.13282051282051,317.676265837634
1.13333333333333,314.269680527354
1.13384615384615,310.800936649525
1.13435897435897,307.267929089441
1.13487179487179,303.668414842307
1.13538461538462,300
1.13589743589744,296.260125106966
1.13641025641026,292.446048627819
1.13692307692308,288.55482821968
1.1374358974359,284.58329944146
1.13794871794872,280.528051457107
1.13846153846154,276.385399196283
1.13897435897436,272.151351318878
1.13948717948718,267.821573182088
1.14,263.391343821319
1.14051282051282,258.855505716039
1.14102564102564,254.20840580171
1.14153846153846,249.443825784929
1.14205128205128,244.554899287322
1.1425641025641,239.534012636779
1.14307692307692,234.372685173754
1.14358974358974,229.061423645426
1.14410256410256,223.589543473342
1.14461538461538,217.944947177034
1.14512820512821,212.113846673472
1.14564102564103,206.080411011016
1.14615384615385,199.826313471363
1.14666666666667,193.330140458948
1.14717948717949,186.566606780078
1.14769230769231,179.50549357115
1.14820512820513,172.11017860733
1.14871794871795,164.335549530545
1.14923076923077,156.12494995996
1.14974358974359,147.405546238018
1.15025641025641,138.08098357374
1.15076923076923,128.01909579781
1.15128205128205,117.029857960783
1.15179487179487,104.822012578407
1.15230769230769,90.905934288631
1.15282051282051,74.3282675569979
1.15333333333333,52.6313758930456
1.15384615384615,0
1.15435897435897,0
1.15487179487179,0
1.15538461538462,0
1.15589743589744,0
1.15641025641026,0
1.15692307692308,0
1.1574358974359,0
1.15794871794872,0
1.15846153846154,0
1.15897435897436,0
1.15948717948718,0
1.16,0
1.16051282051282,0
1.16102564102564,0
1.16153846153846,0
1.16205128205128,0
1.1625641025641,0
1.16307692307692,0
1.16358974358974,0
1.16410256410256,0
1.16461538461538,0
1.16512820512821,0
1.16564102564103,0
1.16615384615385,0
1.16666666666667,0
1.16717948717949,0
1.16769230769231,0
1.16820512820513,0
1.16871794871795,0
1.16923076923077,0
1.16974358974359,0
1.17025641025641,0
1.17076923076923,0
1.17128205128205,0
1.17179487179487,0
1.17230769230769,0
1.17282051282051,0
1.17333333333333,0
1.17384615384615,0
1.17435897435897,0
1.17487179487179,0
1.17538461538462,0
1.17589743589744,0
1.17641025641026,0
1.17692307692308,0
1.1774358974359,0
1.17794871794872,0
1.17846153846154,0
1.17897435897436,0
1.17948717948718,0
1.18,50.0000000000291
1.18051282051282,100.000000000015
1.18102564102564,150.000000000015
1.18153846153846,200
1.18205128205128,250.000000000029
1.1825641025641,300.000000000015
1.18307692307692,350.000000000015
1.18358974358974,400
1.18410256410256,450.000000000029
1.18461538461538,500.000000000015
1.18512820512821,550.000000000015
1.18564102564103,600.000000000015
1.18615384615385,650.000000000029
1.18666666666667,700.000000000015
1.18717948717949,750.000000000015
1.18769230769231,800.000000000015
1.18820512820513,850.000000000029
1.18871794871795,900.000000000015
1.18923076923077,950.000000000015
1.18974358974359,1000.00000000001
1.19025641025641,1050.00000000003
1.19076923076923,1100.00000000001
1.19128205128205,1150.00000000001
1.19179487179487,1200.00000000001
1.19230769230769,1250.00000000003
1.19282051282051,1300.00000000001
1.19333333333333,1350.00000000001
1.19384615384615,1400.00000000001
1.19435897435897,1450.00000000003
1.19487179487179,1500.00000000001
1.19538461538462,1550.00000000001
1.19589743589744,1600.00000000001
1.19641025641026,1650.00000000003
1.19692307692308,1700.00000000001
1.1974358974359,1750.00000000001
1.19794871794872,1800.00000000001
1.19846153846154,1850.00000000003
1.19897435897436,1900.00000000001
1.19948717948718,1950.00000000001
1.2,2000.00000000001
1.20051282051282,2050.00000000003
1.20102564102564,2100.00000000001
1.20153846153846,2150.00000000001
1.20205128205128,2200.00000000001
1.2025641025641,2250.00000000003
1.20307692307692,2300.00000000003
1.20358974358974,2350.00000000001
1.20410256410256,2400.00000000001
1.20461538461538,2450.00000000003
1.20512820512821,2500.00000000003
1.20564102564103,2550.00000000001
1.20615384615385,2600.00000000001
1.20666666666667,2650.00000000003
1.20717948717949,2700.00000000003
1.20769230769231,2750.00000000001
1.20820512820513,2800.00000000001
1.20871794871795,2850.00000000003
1.20923076923077,2900.00000000003
1.20974358974359,2950.00000000001
1.21025641025641,3000.00000000001
1.21076923076923,3050.00000000003
1.21128205128205,3100.00000000003
1.21179487179487,3150.00000000001
1.21230769230769,3200.00000000001
1.21282051282051,3250.00000000003
1.21333333333333,3300.00000000003
1.21384615384615,3350.00000000001
1.21435897435897,3400.00000000001
1.21487179487179,3450.00000000003
1.21538461538462,3500.00000000003
1.21589743589744,3550.00000000001
1.21641025641026,3600.00000000001
1.21692307692308,3650.00000000003
1.2174358974359,3700.00000000003
1.21794871794872,3750.00000000001
1.21846153846154,3800.00000000001
1.21897435897436,3850.00000000001
1.21948717948718,3900.00000000003
1.22,3950.00000000001
1.22051282051282,4000.00000000001
1.22102564102564,4050.00000000001
1.22153846153846,4100.00000000003
1.22205128205128,4150.00000000001
1.2225641025641,4200.00000000001
1.22307692307692,4250.00000000001
1.22358974358974,4300.00000000003
1.22410256410256,4350.00000000001
1.22461538461538,4350
1.22512820512821,4300
1.22564102564103,4249.99999999999
1.22615384615385,4199.99999999999
1.22666666666667,4150
1.22717948717949,4100
1.22769230769231,4049.99999999999
1.22820512820513,3999.99999999999
1.22871794871795,3950
1.22923076923077,3900
1.22974358974359,3849.99999999999
1.23025641025641,3799.99999999999
1.23076923076923,3750
1.23128205128205,3700
1.23179487179487,3649.99999999999
1.23230769230769,3599.99999999999
1.23282051282051,3550
1.23333333333333,3500
1.23384615384615,3449.99999999999
1.23435897435897,3399.99999999999
1.23487179487179,3350
1.23538461538462,3300
1.23589743589744,3249.99999999999
1.23641025641026,3199.99999999999
1.23692307692308,3150
1.2374358974359,3100
1.23794871794872,3049.99999999999
1.23846153846154,2999.99999999999
1.23897435897436,2950
1.23948717948718,2900
1.24,2849.99999999999
1.24051282051282,2799.99999999999
1.24102564102564,2750
1.24153846153846,2700
1.24205128205128,2649.99999999999
1.2425641025641,2599.99999999999
1.24307692307692,2550
1.24358974358974,2500
1.24410256410256,2449.99999999999
1.24461538461538,2399.99999999999
1.24512820512821,2350
1.24564102564103,2300
1.24615384615385,2249.99999999999
1.24666666666667,2199.99999999999
1.24717948717949,2150
1.24769230769231,2100
1.24820512820513,2049.99999999999
1.24871794871795,1999.99999999999
1.24923076923077,1950
1.24974358974359,1900
1.25025641025641,1849.99999999999
1.25076923076923,1799.99999999999
1.25128205128205,1750
1.25179487179487,1700
1.25230769230769,1649.99999999999
1.25282051282051,1599.99999999999
1.25333333333333,1550
1.25384615384615,1500
1.25435897435897,1449.99999999999
1.25487179487179,1399.99999999999
1.25538461538462,1350
1.25589743589744,1300
1.25641025641026,1249.99999999999
1.25692307692308,1199.99999999999
1.2574358974359,1150
1.25794871794872,1100
1.25846153846154,1049.99999999999
1.25897435897436,999.999999999985
1.25948717948718,950
1.26,900
1.26051282051282,849.999999999985
1.26102564102564,799.999999999985
1.26153846153846,750
1.26205128205128,700
1.2625641025641,649.999999999985
1.26307692307692,599.999999999985
1.26358974358974,550
1.26410256410256,500
1.26461538461538,449.999999999985
1.26512820512821,399.999999999985
1.26564102564103,350
1.26615384615385,300
1.26666666666667,249.999999999985
1.26717948717949,199.999999999985
1.26769230769231,150
1.26820512820513,100
1.26871794871795,49.9999999999854
1.26923076923077,-1.45519152283669e-11
1.26974358974359,-50
1.27025641025641,-100
1.27076923076923,-150.000000000015
1.27128205128205,-200.000000000015
1.27179487179487,-250
1.27230769230769,-300
1.27282051282051,-350.000000000015
1.27333333333333,-400.000000000015
1.27384615384615,-450
1.27435897435897,-500
1.27487179487179,-550.000000000015
1.27538461538462,-600.000000000015
1.27589743589744,-600
1.27641025641026,-550
1.27692307692308,-499.999999999985
1.2774358974359,-450
1.27794871794872,-400
1.27846153846154,-350.000000000015
1.27897435897436,-299.999999999985
1.27948717948718,-250
1.28,-200
1.28051282051282,-150.000000000015
1.28102564102564,-100
1.28153846153846,-50
1.28205128205128,0
1.2825641025641,0
1.28307692307692,0
1.28358974358974,0
1.28410256410256,0
1.28461538461538,0
1.28512820512821,0
1.28564102564103,0
1.28615384615385,0
1.28666666666667,0
1.28717948717949,0
1.28769230769231,0
1.28820512820513,0
1.28871794871795,0
1.28923076923077,0
1.28974358974359,0
1.29025641025641,0
1.29076923076923,0
1.29128205128205,0
1.29179487179487,0
1.29230769230769,0
1.29282051282051,0
1.29333333333333,0
1.29384615384615,0
1.29435897435897,0
1.29487179487179,0
1.29538461538462,0
1.29589743589744,0
1.29641025641026,0
1.29692307692308,0
1.2974358974359,0
1.29794871794872,0
1.29846153846154,0
1.29897435897436,0
1.29948717948718,0
1.3,0
1.30051282051282,0
1.30102564102564,0
1.30153846153846,0
1.30205128205128,0
1.3025641025641,0
1.30307692307692,0
1.30358974358974,0
1.30410256410256,0
1.30461538461538,0
1.30512820512821,0
1.30564102564103,0
1.30615384615385,0
1.30666666666667,0
1.30717948717949,0
1.30769230769231,0
1.30820512820513,0
1.30871794871795,0
1.30923076923077,0
1.30974358974359,0
1.31025641025641,0
1.31076923076923,0
1.31128205128205,0
1.31179487179487,0
1.31230769230769,0
1.31282051282051,0
1.31333333333333,0
1.31384615384615,0
1.31435897435897,0
1.31487179487179,0
1.31538461538462,0
1.31589743589744,0
1.31641025641026,0
1.31692307692308,0
1.3174358974359,0
1.31794871794872,0
1.31846153846154,0
1.31897435897436,0
1.31948717948718,0
1.32,0
1.32051282051282,0
1.32102564102564,0
1.32153846153846,0
1.32205128205128,0
1.3225641025641,0
1.32307692307692,0
1.32358974358974,0
1.32410256410256,0
1.32461538461538,0
1.32512820512821,0
1.32564102564103,0
1.32615384615385,0
1.32666666666667,0
1.32717948717949,0
1.32769230769231,0
1.32820512820513,0
1.32871794871795,0
1.32923076923077,0
1.32974358974359,0
1.33025641025641,0
1.33076923076923,0
1.33128205128205,0
1.33179487179487,0
1.33230769230769,0
1.33282051282051,0
1.33333333333333,0
1.33384615384615,0
1.33435897435897,0
1.33487179487179,0
1.33538461538462,0
1.33589743589744,0
1.33641025641026,0
1.33692307692308,0
1.3374358974359,0
1.33794871794872,0
1.33846153846154,0
1.33897435897436,0
1.33948717948718,0
1.34,0
1.34051282051282,0
1.34102564102564,0
1.34153846153846,0
1.34205128205128,0
1.3425641025641,0
1.34307692307692,0
1.34358974358974,0
1.34410256410256,0
1.34461538461538,0
1.34512820512821,0
1.34564102564103,0
1.34615384615385,0
1.34666666666667,0
1.34717948717949,0
1.34769230769231,0
1.34820512820513,0
1.34871794871795,0
1.34923076923077,0
1.34974358974359,0
1.35025641025641,0
1.35076923076923,0
1.35128205128205,0
1.35179487179487,0
1.35230769230769,0
1.35282051282051,0
1.35333333333333,0
1.35384615384615,0
1.35435897435897,52.6313758930456
1.35487179487179,74.3282675569979
1.35538461538462,90.905934288631
1.35589743589744,104.822012578407
1.35641025641026,117.029857960783
1.35692307692308,128.01909579781
1.3574358974359,138.08098357374
1.35794871794872,147.405546238018
1.35846153846154,156.12494995996
1.35897435897436,164.335549530545
1.35948717948718,172.11017860733
1.36,179.50549357115
1.36051282051282,186.566606780078
1.36102564102564,193.330140458948
1.36153846153846,199.826313471363
1.36205128205128,206.080411011016
1.3625641025641,212.113846673472
1.36307692307692,217.944947177034
1.36358974358974,223.589543473342
1.36410256410256,229.061423645426
1.36461538461538,234.372685173754
1.36512820512821,239.534012636779
1.36564102564103,244.554899287322
1.36615384615385,249.443825784929
1.36666666666667,254.20840580171
1.36717948717949,258.855505716039
1.36769230769231,263.391343821319
1.36820512820513,267.821573182088
1.36871794871795,272.151351318878
1.36923076923077,276.385399196283
1.36974358974359,280.528051457107
1.37025641025641,284.58329944146
1.37076923076923,288.55482821968
1.37128205128205,292.446048627819
1.37179487179487,296.260125106966
1.37230769230769,300
1.37282051282051,303.668414842307
1.37333333333333,307.267929089441
1.37384615384615,310.800936649525
1.37435897435897,314.269680527354
1.37487179487179,317.676265837634
1.37538461538462,321.022671404304
1.37589743589744,324.310760129544
1.37641025641026,327.542288288526
1.37692307692308,330.718913883074
1.3774358974359,333.842204168303
1.37794871794872,336.913642450311
1.37846153846154,339.934634239519
1.37897435897436,342.906512832886
1.37948717948718,345.830544388576
1.38,348.707932548461
1.38051282051282,351.539822656808
1.38102564102564,354.327305617522
1.38153846153846,357.071421427142
1.38205128205128,359.773162416351
1.3825641025641,362.433476228891
1.38307692307692,365.053268563492
1.38358974358974,367.63340570146
1.38410256410256,370.174716840108
1.38461538461538,372.677996249965
1.38512820512821,375.144005271786
1.38564102564103,377.573474167693
1.38615384615385,379.967103839267
1.38666666666667,382.325567424117
1.38717948717949,384.649511781284
1.38769230769231,386.939558874797
1.38820512820513,389.196307063799
1.38871794871795,391.420332306856
1.38923076923077,393.612189287318
1.38974358974359,395.772412465972
1.39025641025641,397.901517066661
1.39076923076923,400
1.39128205128205,402.068340729886
1.39179487179487,404.107002087074
1.39230769230769,406.116431033707
1.39282051282051,408.097059382377
1.39333333333333,410.049304472969
1.39384615384615,411.973569810276
1.39435897435897,413.870245665128
1.39487179487179,415.739709641549
1.39538461538462,417.582327212252
1.39589743589744,419.398452224606
1.39641025641026,421.188427379035
1.39692307692308,422.952584681651
1.3974358974359,424.691245872796
1.39794871794872,426.404722833039
1.39846153846154,428.093317968044
1.39897435897436,429.757324573638
1.39948717948718,431.397027182303
1.4,433.012701892219
1.40051282051282,434.604616679927
1.40102564102564,436.173031697567
1.40153846153846,437.71819955563
1.40205128205128,439.240365592044
1.4025641025641,440.739768128401
1.40307692307692,442.216638714053
1.40358974358974,443.671202358761
1.40410256410256,445.10367775454
1.40461538461538,446.514277487294
1.40512820512821,447.903208238808
1.40564102564103,449.27067097961
1.40615384615385,450.616861153192
1.40666666666667,451.94196885206
1.40717948717949,453.246178986025
1.40769230769231,454.529671443155
1.40820512820513,455.792621243748
1.40871794871795,457.035198687701
1.40923076923077,458.257569495584
1.40974358974359,459.459894943757
1.41025641025641,460.642331993806
1.41076923076923,461.80503341658
1.41128205128205,462.948147911104
1.41179487179487,464.071820218582
1.41230769230769,465.176191231762
1.41282051282051,466.261398099848
1.41333333333333,467.32757432918
1.41384615384615,468.37484987988
1.41435897435897,469.403351258637
1.41487179487179,470.413201607814
1.41538461538462,471.404520791032
1.41589743589744,472.377425475398
1.41641025641026,473.332029210514
1.41692307692308,474.268442504407
1.4174358974359,475.186772896513
1.41794871794872,476.08712502785
1.41846153846154,476.969600708473
1.41897435897436,477.834298982347
1.41948717948718,478.681316189734
1.42,479.510746027193
1.42051282051282,480.322679605294
1.42102564102564,481.117205504125
1.42153846153846,481.894409826699
1.42205128205128,482.654376250315
1.4225641025641,483.397186075977
1.42307692307692,484.122918275927
1.42358974358974,484.831649539365
1.42410256410256,485.52345431643
1.42461538461538,486.198404860494
1.42512820512821,486.856571268843
1.42564102564103,487.498021521785
1.42615384615385,488.122821520249
1.42666666666667,488.731035121935
1.42717948717949,489.322724176041
1.42769230769231,489.897948556636
1.42820512820513,490.45676619471
1.42871794871795,490.999233108953
1.42923076923077,491.525403435288
1.42974358974359,492.035329455212
1.43025641025641,492.529061622977
1.43076923076923,493.006648591635
1.43128205128205,493.468137237994
1.43179487179487,493.913572686508
1.43230769230769,494.34299833213
1.43282051282051,494.756455862158
1.43333333333333,495.153985277108
1.43384615384615,495.535624910617
1.43435897435897,495.901411448428
1.43487179487179,496.25137994646
1.43538461538462,496.585563847986
1.43589743589744,496.903994999953
1.43641025641026,497.206703668444
1.43692307692308,497.49371855331
1.4374358974359,497.765066801995
1.43794871794872,498.020774022555
1.43846153846154,498.260864295892
1.43897435897436,498.485360187225
1.43948717948718,498.694282756802
1.44,498.887651569859
1.44051282051282,499.065484705856
1.44102564102564,499.227798766984
1.44153846153846,499.374608885955
1.44205128205128,499.505928733089
1.4425641025641,499.621770522709
1.44307692307692,499.722145018832
1.44358974358974,499.807061540183
1.44410256410256,499.876527964533
1.44461538461538,499.930550732355
1.44512820512821,499.969134849812
1.44564102564103,499.992283891079
1.44615384615385,500
1.44666666666667,499.992283891079
1.44717948717949,499.969134849812
1.44769230769231,499.930550732355
1.44820512820513,499.876527964533
1.44871794871795,499.807061540183
1.44923076923077,499.722145018832
1.44974358974359,499.621770522709
1.45025641025641,499.505928733089
1.45076923076923,499.374608885955
1.45128205128205,499.227798766984
1.45179487179487,499.065484705856
1.45230769230769,498.887651569859
1.45282051282051,498.694282756802
1.45333333333333,498.485360187225
1.45384615384615,498.260864295892
1.45435897435897,498.020774022555
1.45487179487179,497.765066801995
1.45538461538462,497.49371855331
1.45589743589744,497.206703668444
1.45641025641026,496.903994999953
1.45692307692308,496.585563847986
1.4574358974359,496.25137994646
1.45794871794872,495.901411448428
1.45846153846154,495.535624910617
1.45897435897436,495.153985277108
1.45948717948718,494.756455862158
1.46,494.34299833213
1.46051282051282,493.913572686508
1.46102564102564,493.468137237994
1.46153846153846,493.006648591635
1.46205128205128,492.529061622977
1.4625641025641,492.035329455212
1.46307692307692,491.525403435288
1.46358974358974,490.999233108953
1.46410256410256,490.45676619471
1.46461538461538,489.897948556636
1.46512820512821,489.322724176041
1.46564102564103,488.731035121935
1.46615384615385,488.122821520249
1.46666666666667,487.498021521785
1.46717948717949,486.856571268843
1.46769230769231,486.198404860494
1.46820512820513,485.52345431643
1.46871794871795,484.831649539365
1.46923076923077,484.122918275927
1.46974358974359,483.397186075977
1.47025641025641,482.654376250315
1.47076923076923,481.894409826699
1.47128205128205,481.117205504125
1.47179487179487,480.322679605294
1.47230769230769,479.510746027193
1.47282051282051,478.681316189734
1.47333333333333,477.834298982347
1.47384615384615,476.969600708473
1.47435897435897,476.08712502785
1.47487179487179,475.186772896513
1.47538461538462,474.268442504407
1.47589743589744,473.332029210514
1.47641025641026,472.377425475398
1.47692307692308,471.404520791032
1.4774358974359,470.413201607814
1.47794871794872,469.403351258637
1.47846153846154,468.37484987988
1.47897435897436,467.32757432918
1.47948717948718,466.261398099848
1.48,465.176191231762
1.48051282051282,464.071820218582
1.48102564102564,462.948147911104
1.48153846153846,461.80503341658
1.48205128205128,460.642331993806
1.4825641025641,459.459894943757
1.48307692307692,458.257569495584
1.48358974358974,457.035198687701
1.48410256410256,455.792621243748
1.48461538461538,454.529671443155
1.48512820512821,453.246178986025
1.48564102564103,451.94196885206
1.48615384615385,450.616861153192
1.48666666666667,449.27067097961
1.48717948717949,447.903208238808
1.48769230769231,446.514277487294
1.48820512820513,445.10367775454
1.48871794871795,443.671202358761
1.48923076923077,442.216638714053
1.48974358974359,440.739768128401
1.49025641025641,439.240365592044
1.49076923076923,437.71819955563
1.49128205128205,436.173031697567
1.49179487179487,434.604616679927
1.49230769230769,433.012701892219
1.49282051282051,431.397027182303
1.49333333333333,429.757324573638
1.49384615384615,428.093317968044
1.49435897435897,426.404722833039
1.49487179487179,424.691245872796
1.49538461538462,422.952584681651
1.49589743589744,421.188427379035
1.49641025641026,419.398452224606
1.49692307692308,417.582327212252
1.4974358974359,415.739709641549
1.49794871794872,413.870245665128
1.49846153846154,411.973569810276
1.49897435897436,410.049304472969
1.49948717948718,408.097059382377
1.5,406.116431033707
1.50051282051282,404.107002087074
1.50102564102564,402.068340729886
1.50153846153846,400
1.50205128205128,397.901517066661
1.5025641025641,395.772412465972
1.50307692307692,393.612189287318
1.50358974358974,391.420332306856
1.50410256410256,389.196307063799
1.50461538461538,386.939558874797
1.50512820512821,384.649511781284
1.50564102564103,382.325567424117
1.50615384615385,379.967103839267
1.50666666666667,377.573474167693
1.50717948717949,375.144005271786
1.50769230769231,372.677996249965
1.50820512820513,370.174716840108
1.50871794871795,367.63340570146
1.50923076923077,365.053268563492
1.50974358974359,362.433476228891
1.51025641025641,359.773162416351
1.51076923076923,357.071421427142
1.51128205128205,354.327305617522
1.51179487179487,351.539822656808
1.51230769230769,348.707932548461
1.51282051282051,345.830544388576
1.51333333333333,342.906512832886
1.51384615384615,339.934634239519
1.51435897435897,336.913642450311
1.51487179487179,333.842204168303
1.51538461538462,330.718913883074
1.51589743589744,327.542288288526
1.51641025641026,324.310760129544
1.51692307692308,321.022671404304
1.5174358974359,317.676265837634
1.51794871794872,314.269680527354
1.51846153846154,310.800936649525
1.51897435897436,307.267929089441
1.51948717948718,303.668414842307
1.52,300
1.52051282051282,296.260125106966
1.52102564102564,292.446048627819
1.52153846153846,288.55482821968
1.52205128205128,284.58329944146
1.5225641025641,280.528051457107
1.52307692307692,276.385399196283
1.52358974358974,272.151351318878
1.52410256410256,267.821573182088
1.52461538461538,263.391343821319
1.52512820512821,258.855505716039
1.52564102564103,254.20840580171
1.52615384615385,249.443825784929
1.52666666666667,244.554899287322
1.52717948717949,239.534012636779
1.52769230769231,234.372685173754
1.52820512820513,229.061423645426
1.52871794871795,223.589543473342
1.52923076923077,217.944947177034
1.52974358974359,212.113846673472
1.53025641025641,206.080411011016
1.53076923076923,199.826313471363
1.53128205128205,193.330140458948
1.53179487179487,186.566606780078
1.53230769230769,179.50549357115
1.53282051282051,172.11017860733
1.53333333333333,164.335549530545
1.53384615384615,156.12494995996
1.53435897435897,147.405546238018
1.53487179487179,138.08098357374
1.53538461538462,128.01909579781
1.53589743589744,117.029857960783
1.53641025641026,104.822012578407
1.53692307692308,90.905934288631
1.5374358974359,74.3282675569979
1.53794871794872,52.6313758930456
1.53846153846154,0
1.53897435897436,0
1.53948717948718,0
1.54,0
1.54051282051282,0
1.54102564102564,0
1.54153846153846,0
1.54205128205128,0
1.5425641025641,0
1.54307692307692,0
1.54358974358974,0
1.54410256410256,0
1.54461538461538,0
1.54512820512821,0
1.54564102564103,0
1.54615384615385,0
1.54666666666667,0
1.54717948717949,0
1.54769230769231,0
1.54820512820513,0
1.54871794871795,0
1.54923076923077,0
1.54974358974359,0
1.55025641025641,0
1.55076923076923,0
1.55128205128205,0
1.55179487179487,0
1.55230769230769,0
1.55282051282051,0
1.55333333333333,0
1.55384615384615,0
1.55435897435897,0
1.55487179487179,0
1.55538461538462,0
1.55589743589744,0
1.55641025641026,0
1.55692307692308,0
1.5574358974359,0
1.55794871794872,0
1.55846153846154,0
1.55897435897436,0
1.55948717948718,0
1.56,0
1.56051282051282,0
1.56102564102564,0
1.56153846153846,0
1.56205128205128,0
1.5625641025641,0
1.56307692307692,0
1.56358974358974,0
1.56410256410256,0
1.56461538461538,50.0000000000291
1.56512820512821,100
1.56564102564103,150
1.56615384615385,200
1.56666666666667,250.000000000029
1.56717948717949,300
1.56769230769231,350
1.56820512820513,400
1.56871794871795,450.000000000029
1.56923076923077,500
1.56974358974359,550
1.57025641025641,600
1.57076923076923,650.000000000029
1.57128205128205,700
1.57179487179487,750
1.57230769230769,800
1.57282051282051,850.000000000029
1.57333333333333,900
1.57384615384615,950
1.57435897435897,1000
1.57487179487179,1050.00000000003
1.57538461538462,1100
1.57589743589744,1150
1.57641025641026,1200
1.57692307692308,1250.00000000003
1.5774358974359,1300
1.57794871794872,1350
1.57846153846154,1400
1.57897435897436,1450.00000000003
1.57948717948718,1500.00000000003
1.58,1550
1.58051282051282,1600
1.58102564102564,1650.00000000003
1.58153846153846,1700.00000000003
1.58205128205128,1750
1.5825641025641,1800
1.58307692307692,1850.00000000003
1.58358974358974,1900.00000000003
1.58410256410256,1950
1.58461538461538,2000
1.58512820512821,2050.00000000003
1.58564102564103,2100.00000000003
1.58615384615385,2150
1.58666666666667,2200
1.58717948717949,2250.00000000003
1.58769230769231,2300.00000000003
1.58820512820513,2350
1.58871794871795,2400
1.58923076923077,2450.00000000003
1.58974358974359,2500.00000000003
1.59025641025641,2550
1.59076923076923,2600
1.59128205128205,2650.00000000003
1.59179487179487,2700.00000000003
1.59230769230769,2750
1.59282051282051,2800
1.59333333333333,2850.00000000003
1.59384615384615,2900.00000000003
1.59435897435897,2950
1.59487179487179,3000
1.59538461538462,3050.00000000003
1.59589743589744,3100.00000000003
1.59641025641026,3150
1.59692307692308,3200
1.5974358974359,3250.00000000003
1.59794871794872,3300.00000000003
1.59846153846154,3350
1.59897435897436,3400
1.59948717948718,3450.00000000003
1.6,3500.00000000003
1.60051282051282,3550
1.60102564102564,3600
1.60153846153846,3650.00000000003
1.60205128205128,3700.00000000003
1.6025641025641,3750
1.60307692307692,3800
1.60358974358974,3850
1.60410256410256,3900.00000000003
1.60461538461538,3950
1.60512820512821,4000
1.60564102564103,4050
1.60615384615385,4100.00000000003
1.60666666666667,4150
1.60717948717949,4200
1.60769230769231,4250
1.60820512820513,4300.00000000003
1.60871794871795,4350.00000000003
1.60923076923077,4350
1.60974358974359,4300
1.61025641025641,4249.99999999997
1.61076923076923,4200
1.61128205128205,4150
1.61179487179487,4100
1.61230769230769,4049.99999999997
1.61282051282051,4000
1.61333333333333,3950
1.61384615384615,3900
1.61435897435897,3849.99999999997
1.61487179487179,3800
1.61538461538462,3750
1.61589743589744,3700
1.61641025641026,3649.99999999997
1.61692307692308,3600
1.6174358974359,3550
1.61794871794872,3500
1.61846153846154,3449.99999999997
1.61897435897436,3400
1.61948717948718,3350
1.62,3300
1.62051282051282,3249.99999999997
1.62102564102564,3200
1.62153846153846,3150
1.62205128205128,3100
1.6225641025641,3049.99999999997
1.62307692307692,3000
1.62358974358974,2950
1.62410256410256,2900
1.62461538461538,2849.99999999997
1.62512820512821,2800
1.62564102564103,2750
1.62615384615385,2700
1.62666666666667,2649.99999999997
1.62717948717949,2600
1.62769230769231,2550
1.62820512820513,2500
1.62871794871795,2449.99999999997
1.62923076923077,2400
1.62974358974359,2350
1.63025641025641,2300
1.63076923076923,2249.99999999997
1.63128205128205,2200
1.63179487179487,2150
1.63230769230769,2100
1.63282051282051,2049.99999999997
1.63333333333333,2000
1.63384615384615,1950
1.63435897435897,1900
1.63487179487179,1849.99999999997
1.63538461538462,1800
1.63589743589744,1750
1.63641025641026,1700
1.63692307692308,1649.99999999997
1.6374358974359,1600
1.63794871794872,1550
1.63846153846154,1500
1.63897435897436,1449.99999999997
1.63948717948718,1400
1.64,1350
1.64051282051282,1300
1.64102564102564,1249.99999999997
1.64153846153846,1200
1.64205128205128,1150
1.6425641025641,1100
1.64307692307692,1049.99999999997
1.64358974358974,1000
1.64410256410256,950
1.64461538461538,900
1.64512820512821,849.999999999971
1.64564102564103,800
1.64615384615385,750
1.64666666666667,700
1.64717948717949,649.999999999971
1.64769230769231,600
1.64820512820513,550
1.64871794871795,500
1.64923076923077,449.999999999971
1.64974358974359,400
1.65025641025641,350
1.65076923076923,300
1.65128205128205,249.999999999971
1.65179487179487,200
1.65230769230769,150
1.65282051282051,100
1.65333333333333,49.9999999999709
1.65384615384615,0
1.65435897435897,-50
1.65487179487179,-100
1.65538461538462,-150.000000000029
1.65589743589744,-200
1.65641025641026,-250
1.65692307692308,-300
1.6574358974359,-350.000000000029
1.65794871794872,-400
1.65846153846154,-450
1.65897435897436,-500
1.65948717948718,-550.000000000029
1.66,-600
1.66051282051282,-599.999999999971
1.66102564102564,-550
1.66153846153846,-499.999999999971
1.66205128205128,-449.999999999971
1.6625641025641,-399.999999999971
1.66307692307692,-350
1.66358974358974,-299.999999999971
1.66410256410256,-249.999999999971
1.66461538461538,-200
1.66512820512821,-150
1.66564102564103,-99.9999999999709
1.66615384615385,-49.9999999999709
1.66666666666667,0
1.66717948717949,0
1.66769230769231,0
1.66820512820513,0
1.66871794871795,0
1.66923076923077,0
1.66974358974359,0
1.67025641025641,0
1.67076923076923,0
1.67128205128205,0
1.67179487179487,0
1.67230769230769,0
1.67282051282051,0
1.67333333333333,0
1.67384615384615,0
1.67435897435897,0
1.67487179487179,0
1.67538461538462,0
1.67589743589744,0
1.67641025641026,0
1.67692307692308,0
1.6774358974359,0
1.67794871794872,0
1.67846153846154,0
1.67897435897436,0
1.67948717948718,0
1.68,0
1.68051282051282,0
1.68102564102564,0
1.68153846153846,0
1.68205128205128,0
1.6825641025641,0
1.68307692307692,0
1.68358974358974,0
1.68410256410256,0
1.68461538461538,0
1.68512820512821,0
1.68564102564103,0
1.68615384615385,0
1.68666666666667,0
1.68717948717949,0
1.68769230769231,0
1.68820512820513,0
1.68871794871795,0
1.68923076923077,0
1.68974358974359,0
1.69025641025641,0
1.69076923076923,0
1.69128205128205,0
1.69179487179487,0
1.69230769230769,0
1.69282051282051,0
1.69333333333333,0
1.69384615384615,0
1.69435897435897,0
1.69487179487179,0
1.69538461538462,0
1.69589743589744,0
1.69641025641026,0
1.69692307692308,0
1.6974358974359,0
1.69794871794872,0
1.69846153846154,0
1.69897435897436,0
1.69948717948718,0
1.7,0
1.70051282051282,0
1.70102564102564,0
1.70153846153846,0
1.70205128205128,0
1.7025641025641,0
1.70307692307692,0
1.70358974358974,0
1.70410256410256,0
1.70461538461538,0
1.70512820512821,0
1.70564102564103,0
1.70615384615385,0
1.70666666666667,0
1.70717948717949,0
1.70769230769231,0
1.70820512820513,0
1.70871794871795,0
1.70923076923077,0
1.70974358974359,0
1.71025641025641,0
1.71076923076923,0
1.71128205128205,0
1.71179487179487,0
1.71230769230769,0
1.71282051282051,0
1.71333333333333,0
1.71384615384615,0
1.71435897435897,0
1.71487179487179,0
1.71538461538462,0
1.71589743589744,0
1.71641025641026,0
1.71692307692308,0
1.7174358974359,0
1.71794871794872,0
1.71846153846154,0
1.71897435897436,0
1.71948717948718,0
1.72,0
1.72051282051282,0
1.72102564102564,0
1.72153846153846,0
1.72205128205128,0
1.7225641025641,0
1.72307692307692,0
1.72358974358974,0
1.72410256410256,0
1.72461538461538,0
1.72512820512821,0
1.72564102564103,0
1.72615384615385,0
1.72666666666667,0
1.72717948717949,0
1.72769230769231,0
1.72820512820513,0
1.72871794871795,0
1.72923076923077,0
1.72974358974359,0
1.73025641025641,0
1.73076923076923,0
1.73128205128205,0
1.73179487179487,0
1.73230769230769,0
1.73282051282051,0
1.73333333333333,0
1.73384615384615,0
1.73435897435897,0
1.73487179487179,0
1.73538461538462,0
1.73589743589744,0
1.73641025641026,0
1.73692307692308,0
1.7374358974359,0
1.73794871794872,0
1.73846153846154,0
1.73897435897436,52.6313758930456
1.73948717948718,74.3282675569979
1.74,90.905934288631
1.74051282051282,104.822012578407
1.74102564102564,117.029857960783
1.74153846153846,128.01909579781
1.74205128205128,138.08098357374
1.7425641025641,147.405546238018
1.74307692307692,156.12494995996
1.74358974358974,164.335549530545
1.74410256410256,172.11017860733
1.74461538461538,179.50549357115
1.74512820512821,186.566606780078
1.74564102564103,193.330140458948
1.74615384615385,199.826313471363
1.74666666666667,206.080411011016
1.74717948717949,212.113846673472
1.74769230769231,217.944947177034
1.74820512820513,223.589543473342
1.74871794871795,229.061423645426
1.74923076923077,234.372685173754
1.74974358974359,239.534012636779
1.75025641025641,244.554899287322
1.75076923076923,249.443825784929
1.75128205128205,254.20840580171
1.75179487179487,258.855505716039
1.75230769230769,263.391343821319
1.75282051282051,267.821573182088
1.75333333333333,272.151351318878
1.75384615384615,276.385399196283
1.75435897435897,280.528051457107
1.75487179487179,284.58329944146
1.75538461538462,288.55482821968
1.75589743589744,292.446048627819
1.75641025641026,296.260125106966
1.75692307692308,300
1.7574358974359,303.668414842307
1.75794871794872,307.267929089441
1.75846153846154,310.800936649525
1.75897435897436,314.269680527354
1.75948717948718,317.676265837634
1.76,321.022671404304
1.76051282051282,324.310760129544
1.76102564102564,327.542288288526
1.76153846153846,330.718913883074
1.76205128205128,333.842204168303
1.7625641025641,336.913642450311
1.76307692307692,339.934634239519
1.76358974358974,342.906512832886
1.76410256410256,345.830544388576
1.76461538461538,348.707932548461
1.76512820512821,351.539822656808
1.76564102564103,354.327305617522
1.76615384615385,357.071421427142
1.76666666666667,359.773162416351
1.76717948717949,362.433476228891
1.76769230769231,365.053268563492
1.76820512820513,367.63340570146
1.76871794871795,370.174716840108
1.76923076923077,372.677996249965
1.76974358974359,375.144005271786
1.77025641025641,377.573474167693
1.77076923076923,379.967103839267
1.77128205128205,382.325567424117
1.77179487179487,384.649511781284
1.77230769230769,386.939558874797
1.77282051282051,389.196307063799
1.77333333333333,391.420332306856
1.77384615384615,393.612189287318
1.77435897435897,395.772412465972
1.77487179487179,397.901517066661
1.77538461538462,400
1.77589743589744,402.068340729886
1.77641025641026,404.107002087074
1.77692307692308,406.116431033707
1.7774358974359,408.097059382377
1.77794871794872,410.049304472969
1.77846153846154,411.973569810276
1.77897435897436,413.870245665128
1.77948717948718,415.739709641549
1.78,417.582327212252
1.78051282051282,419.398452224606
1.78102564102564,421.188427379035
1.78153846153846,422.952584681651
1.78205128205128,424.691245872796
1.7825641025641,426.404722833039
1.78307692307692,428.093317968044
1.78358974358974,429.757324573638
1.78410256410256,431.397027182303
1.78461538461538,433.012701892219
1.78512820512821,434.604616679927
1.78564102564103,436.173031697567
1.78615384615385,437.71819955563
1.78666666666667,439.240365592044
1.78717948717949,440.739768128401
1.78769230769231,442.216638714053
1.78820512820513,443.671202358761
1.78871794871795,445.10367775454
1.78923076923077,446.514277487294
1.78974358974359,447.903208238808
1.79025641025641,449.27067097961
1.79076923076923,450.616861153192
1.79128205128205,451.94196885206
1.79179487179487,453.246178986025
1.79230769230769,454.529671443155
1.79282051282051,455.792621243748
1.79333333333333,457.035198687701
1.79384615384615,458.257569495584
1.79435897435897,459.459894943757
1.79487179487179,460.642331993806
1.79538461538462,461.80503341658
1.79589743589744,462.948147911104
1.79641025641026,464.071820218582
1.79692307692308,465.176191231762
1.7974358974359,466.261398099848
1.79794871794872,467.32757432918
1.79846153846154,468.37484987988
1.79897435897436,469.403351258637
1.79948717948718,470.413201607814
1.8,471.404520791032
1.80051282051282,472.377425475398
1.80102564102564,473.332029210514
1.80153846153846,474.268442504407
1.80205128205128,475.186772896513
1.8025641025641,476.08712502785
1.80307692307692,476.969600708473
1.80358974358974,477.834298982347
1.80410256410256,478.681316189734
1.80461538461538,479.510746027193
1.80512820512821,480.322679605294
1.80564102564103,481.117205504125
1.80615384615385,481.894409826699
1.80666666666667,482.654376250315
1.80717948717949,483.397186075977
1.80769230769231,484.122918275927
1.80820512820513,484.831649539365
1.80871794871795,485.52345431643
1.80923076923077,486.198404860494
1.80974358974359,486.856571268843
1.81025641025641,487.498021521785
1.81076923076923,488.122821520249
1.81128205128205,488.731035121935
1.81179487179487,489.322724176041
1.81230769230769,489.897948556636
1.81282051282051,490.45676619471
1.81333333333333,490.999233108953
1.81384615384615,491.525403435288
1.81435897435897,492.035329455212
1.81487179487179,492.529061622977
1.81538461538462,493.006648591635
1.81589743589744,493.468137237994
1.81641025641026,493.913572686508
1.81692307692308,494.34299833213
1.8174358974359,494.756455862158
1.81794871794872,495.153985277108
1.81846153846154,495.535624910617
1.81897435897436,495.901411448428
1.81948717948718,496.25137994646
1.82,496.585563847986
1.82051282051282,496.903994999953
1.82102564102564,497.206703668444
1.82153846153846,497.49371855331
1.82205128205128,497.765066801995
1.8225641025641,498.020774022555
1.82307692307692,498.260864295892
1.82358974358974,498.485360187225
1.82410256410256,498.694282756802
1.82461538461538,498.887651569859
1.82512820512821,499.065484705856
1.82564102564103,499.227798766984
1.82615384615385,499.374608885955
1.82666666666667,499.505928733089
1.82717948717949,499.621770522709
1.82769230769231,499.722145018832
1.82820512820513,499.807061540183
1.82871794871795,499.876527964533
1.82923076923077,499.930550732355
1.82974358974359,499.969134849812
1.83025641025641,499.992283891079
1.83076923076923,500
1.83128205128205,499.992283891079
1.83179487179487,499.969134849812
1.83230769230769,499.930550732355
1.83282051282051,499.876527964533
1.83333333333333,499.807061540183
1.83384615384615,499.722145018832
1.83435897435897,499.621770522709
1.83487179487179,499.505928733089
1.83538461538462,499.374608885955
1.83589743589744,499.227798766984
1.83641025641026,499.065484705856
1.83692307692308,498.887651569859
1.8374358974359,498.694282756802
1.83794871794872,498.485360187225
1.83846153846154,498.260864295892
1.83897435897436,498.020774022555
1.83948717948718,497.765066801995
1.84,497.49371855331
1.84051282051282,497.206703668444
1.84102564102564,496.903994999953
1.84153846153846,496.585563847986
1.84205128205128,496.25137994646
1.8425641025641,495.901411448428
1.84307692307692,495.535624910617
1.84358974358974,495.153985277108
1.84410256410256,494.756455862158
1.84461538461538,494.34299833213
1.84512820512821,493.913572686508
1.84564102564103,493.468137237994
1.84615384615385,493.006648591635
1.84666666666667,492.529061622977
1.84717948717949,492.035329455212
1.84769230769231,491.525403435288
1.84820512820513,490.999233108953
1.84871794871795,490.45676619471
1.84923076923077,489.897948556636
1.84974358974359,489.322724176041
1.85025641025641,488.731035121935
1.85076923076923,488.122821520249
1.85128205128205,487.498021521785
1.85179487179487,486.856571268843
1.85230769230769,486.198404860494
1.85282051282051,485.52345431643
1.85333333333333,484.831649539365
1.85384615384615,484.122918275927
1.85435897435897,483.397186075977
1.85487179487179,482.654376250315
1.85538461538462,481.894409826699
1.85589743589744,481.117205504125
1.85641025641026,480.322679605294
1.85692307692308,479.510746027193
1.8574358974359,478.681316189734
1.85794871794872,477.834298982347
1.85846153846154,476.969600708473
1.85897435897436,476.08712502785
1.85948717948718,475.186772896513
1.86,474.268442504407
1.86051282051282,473.332029210514
1.86102564102564,472.377425475398
1.86153846153846,471.404520791032
1.86205128205128,470.413201607814
1.8625641025641,469.403351258637
1.86307692307692,468.37484987988
1.86358974358974,467.32757432918
1.86410256410256,466.261398099848
1.86461538461538,465.176191231762
1.86512820512821,464.071820218582
1.86564102564103,462.948147911104
1.86615384615385,461.80503341658
1.86666666666667,460.642331993806
1.86717948717949,459.459894943757
1.86769230769231,458.257569495584
1.86820512820513,457.035198687701
1.86871794871795,455.792621243748
1.86923076923077,454.529671443155
1.86974358974359,453.246178986025
1.87025641025641,451.94196885206
1.87076923076923,450.616861153192
1.87128205128205,449.27067097961
1.87179487179487,447.903208238808
1.87230769230769,446.514277487294
1.87282051282051,445.10367775454
1.87333333333333,443.671202358761
1.87384615384615,442.216638714053
1.87435897435897,440.739768128401
1.87487179487179,439.240365592044
1.87538461538462,437.71819955563
1.87589743589744,436.173031697567
1.87641025641026,434.604616679927
1.87692307692308,433.012701892219
1.8774358974359,431.397027182303
1.87794871794872,429.757324573638
1.87846153846154,428.093317968044
1.87897435897436,426.404722833039
1.87948717948718,424.691245872796
1.88,422.952584681651
1.88051282051282,421.188427379035
1.88102564102564,419.398452224606
1.88153846153846,417.582327212252
1.88205128205128,415.739709641549
1.8825641025641,413.870245665128
1.88307692307692,411.973569810276
1.88358974358974,410.049304472969
1.88410256410256,408.097059382377
1.88461538461538,406.116431033707
1.88512820512821,404.107002087074
1.88564102564103,402.068340729886
1.88615384615385,400
1.88666666666667,397.901517066661
1.88717948717949,395.772412465972
1.88769230769231,393.612189287318
1.88820512820513,391.420332306856
1.88871794871795,389.196307063799
1.88923076923077,386.939558874797
1.88974358974359,384.649511781284
1.89025641025641,382.325567424117
1.89076923076923,379.967103839267
1.89128205128205,377.573474167693
1.89179487179487,375.144005271786
1.89230769230769,372.677996249965
1.89282051282051,370.174716840108
1.89333333333333,367.63340570146
1.89384615384615,365.053268563492
1.89435897435897,362.433476228891
1.89487179487179,359.773162416351
1.89538461538462,357.071421427142
1.89589743589744,354.327305617522
1.89641025641026,351.539822656808
1.89692307692308,348.707932548461
1.8974358974359,345.830544388576
1.89794871794872,342.906512832886
1.89846153846154,339.934634239519
1.89897435897436,336.913642450311
1.89948717948718,333.842204168303
1.9,330.718913883074
1.90051282051282,327.542288288526
1.90102564102564,324.310760129544
1.90153846153846,321.022671404304
1.90205128205128,317.676265837634
1.9025641025641,314.269680527354
1.90307692307692,310.800936649525
1.90358974358974,307.267929089441
1.90410256410256,303.668414842307
1.90461538461538,300
1.90512820512821,296.260125106966
1.90564102564103,292.446048627819
1.90615384615385,288.55482821968
1.90666666666667,284.58329944146
1.90717948717949,280.528051457107
1.90769230769231,276.385399196283
1.90820512820513,272.151351318878
1.90871794871795,267.821573182088
1.90923076923077,263.391343821319
1.90974358974359,258.855505716039
1.91025641025641,254.20840580171
1.91076923076923,249.443825784929
1.91128205128205,244.554899287322
1.91179487179487,239.534012636779
1.91230769230769,234.372685173754
1.91282051282051,229.061423645426
1.91333333333333,223.589543473342
1.91384615384615,217.944947177034
1.91435897435897,212.113846673472
1.91487179487179,206.080411011016
1.91538461538462,199.826313471363
1.91589743589744,193.330140458948
1.91641025641026,186.566606780078
1.91692307692308,179.50549357115
1.9174358974359,172.11017860733
1.91794871794872,164.335549530545
1.91846153846154,156.12494995996
1.91897435897436,147.405546238018
1.91948717948718,138.08098357374
1.92,128.01909579781
1.92051282051282,117.029857960783
1.92102564102564,104.822012578407
1.92153846153846,90.905934288631
1.92205128205128,74.3282675569979
1.9225641025641,52.6313758930456
1.92307692307692,0
1.92358974358974,0
1.92410256410256,0
1.92461538461538,0
1.92512820512821,0
1.92564102564103,0
1.92615384615385,0
1.92666666666667,0
1.92717948717949,0
1.92769230769231,0
1.92820512820513,0
1.92871794871795,0
1.92923076923077,0
1.92974358974359,0
1.93025641025641,0
1.93076923076923,0
1.93128205128205,0
1.93179487179487,0
1.93230769230769,0
1.93282051282051,0
1.93333333333333,0
1.93384615384615,0
1.93435897435897,0
1.93487179487179,0
1.93538461538462,0
1.93589743589744,0
1.93641025641026,0
1.93692307692308,0
1.9374358974359,0
1.93794871794872,0
1.93846153846154,0
1.93897435897436,0
1.93948717948718,0
1.94,0
1.94051282051282,0
1.94102564102564,0
1.94153846153846,0
1.94205128205128,0
1.9425641025641,0
1.94307692307692,0
1.94358974358974,0
1.94410256410256,0
1.94461538461538,0
1.94512820512821,0
1.94564102564103,0
1.94615384615385,0
1.94666666666667,0
1.94717948717949,0
1.94769230769231,0
1.94820512820513,0
1.94871794871795,0
1.94923076923077,50.0000000000291
1.94974358974359,100.000000000029
1.95025641025641,150.000000000029
1.95076923076923,200
1.95128205128205,250.000000000029
1.95179487179487,300.000000000029
1.95230769230769,350.000000000029
1.95282051282051,400
1.95333333333333,450.000000000029
1.95384615384615,500.000000000029
1.95435897435897,550.000000000029
1.95487179487179,600
1.95538461538462,650.000000000029
1.95589743589744,700.000000000029
1.95641025641026,750.000000000029
1.95692307692308,800
1.9574358974359,850.000000000029
1.95794871794872,900.000000000029
1.95846153846154,950.000000000029
1.95897435897436,1000
1.95948717948718,1050.00000000003
1.96,1100.00000000003
1.96051282051282,1150.00000000003
1.96102564102564,1200
1.96153846153846,1250.00000000003
1.96205128205128,1300.00000000003
1.9625641025641,1350.00000000003
1.96307692307692,1400
1.96358974358974,1450.00000000003
1.96410256410256,1500.00000000003
1.96461538461538,1550.00000000003
1.96512820512821,1600
1.96564102564103,1650.00000000003
1.96615384615385,1700.00000000003
1.96666666666667,1750.00000000003
1.96717948717949,1800
1.96769230769231,1850.00000000003
1.96820512820513,1900.00000000003
1.96871794871795,1950.00000000003
1.96923076923077,2000
1.96974358974359,2050.00000000003
1.97025641025641,2100.00000000003
1.97076923076923,2150.00000000003
1.97128205128205,2200
1.97179487179487,2250.00000000003
1.97230769230769,2300.00000000003
1.97282051282051,2350.00000000003
1.97333333333333,2400.00000000003
1.97384615384615,2450.00000000003
1.97435897435897,2500.00000000003
1.97487179487179,2550.00000000003
1.97538461538462,2600.00000000003
1.97589743589744,2650.00000000003
1.97641025641026,2700.00000000003
1.97692307692308,2750.00000000003
1.9774358974359,2800.00000000003
1.97794871794872,2850.00000000003
1.97846153846154,2900.00000000003
1.97897435897436,2950.00000000003
1.97948717948718,3000.00000000003
1.98,3050.00000000003
1.98051282051282,3100.00000000003
1.98102564102564,3150.00000000003
1.98153846153846,3200.00000000003
1.98205128205128,3250.00000000003
1.9825641025641,3300.00000000003
1.98307692307692,3350.00000000003
1.98358974358974,3400.00000000003
1.98410256410256,3450.00000000003
1.98461538461538,3500.00000000003
1.98512820512821,3550.00000000003
1.98564102564103,3600.00000000003
1.98615384615385,3650.00000000003
1.98666666666667,3700.00000000003
1.98717948717949,3750.00000000003
1.98769230769231,3800.00000000003
1.98820512820513,3850
1.98871794871795,3900.00000000003
1.98923076923077,3950.00000000003
1.98974358974359,4000.00000000003
1.99025641025641,4050
1.99076923076923,4100.00000000003
1.99128205128205,4150.00000000003
1.99179487179487,4200.00000000003
1.99230769230769,4250
1.99282051282051,4300.00000000003
1.99333333333333,4350.00000000003
1.99384615384615,4350
1.99435897435897,4300
1.99487179487179,4250
1.99538461538462,4200
1.99589743589744,4150
1.99641025641026,4100
1.99692307692308,4050
1.9974358974359,4000
1.99794871794872,3950
1.99846153846154,3900
1.99897435897436,3850
1.99948717948718,3800
2,3750
2.00051282051282,3700
2.00102564102564,3650
2.00153846153846,3600
2.00205128205128,3550
2.0025641025641,3500
2.00307692307692,3450
2.00358974358974,3400
2.00410256410256,3350
2.00461538461538,3300
2.00512820512821,3250
2.00564102564103,3200
2.00615384615385,3150
2.00666666666667,3100
2.00717948717949,3050
2.00769230769231,3000
2.00820512820513,2950
2.00871794871795,2900
2.00923076923077,2850
2.00974358974359,2800
2.01025641025641,2750
2.01076923076923,2700
2.01128205128205,2650
2.01179487179487,2600
2.01230769230769,2550
2.01282051282051,2500
2.01333333333333,2450
2.01384615384615,2400
2.01435897435897,2350
2.01487179487179,2300
2.01538461538462,2250
2.01589743589744,2200
2.01641025641026,2150
2.01692307692308,2100
2.0174358974359,2050
2.01794871794872,2000
2.01846153846154,1950
2.01897435897436,1900
2.01948717948718,1850
2.02,1800
2.02051282051282,1750
2.02102564102564,1700
2.02153846153846,1650
2.02205128205128,1600
2.0225641025641,1550
2.02307692307692,1500
2.02358974358974,1450
2.02410256410256,1400
2.02461538461538,1350
2.02512820512821,1300
2.02564102564103,1250
2.02615384615385,1200
2.02666666666667,1150
2.02717948717949,1100
2.02769230769231,1050
2.02820512820513,1000
2.02871794871795,950
2.02923076923077,900
2.02974358974359,850
2.03025641025641,800
2.03076923076923,750
2.03128205128205,700
2.03179487179487,650
2.03230769230769,600
2.03282051282051,550
2.03333333333333,500
2.03384615384615,450
2.03435897435897,400
2.03487179487179,350
2.03538461538462,300
2.03589743589744,250
2.03641025641026,200
2.03692307692308,150
2.0374358974359,100
2.03794871794872,50
2.03846153846154,0
2.03897435897436,-50
2.03948717948718,-100
2.04,-150
2.04051282051282,-200
2.04102564102564,-250
2.04153846153846,-300
2.04205128205128,-350
2.0425641025641,-400
2.04307692307692,-450
2.04358974358974,-500
2.04410256410256,-550
2.04461538461538,-600
2.04512820512821,-600
2.04564102564103,-550
2.04615384615385,-499.999999999971
2.04666666666667,-450
2.04717948717949,-400
2.04769230769231,-350
2.04820512820513,-299.999999999971
2.04871794871795,-250
2.04923076923077,-200
2.04974358974359,-150
2.05025641025641,-100
2.05076923076923,-50
2.05128205128205,0
2.05179487179487,0
2.05230769230769,0
2.05282051282051,0
2.05333333333333,0
2.05384615384615,0
2.05435897435897,0
2.05487179487179,0
2.05538461538462,0
2.05589743589744,0
2.05641025641026,0
2.05692307692308,0
2.0574358974359,0
2.05794871794872,0
2.05846153846154,0
2.05897435897436,0
2.05948717948718,0
2.06,0
2.06051282051282,0
2.06102564102564,0
2.06153846153846,0
2.06205128205128,0
2.0625641025641,0
2.06307692307692,0
2.06358974358974,0
2.06410256410256,0
2.06461538461538,0
2.06512820512821,0
2.06564102564103,0
2.06615384615385,0
2.06666666666667,0
2.06717948717949,0
2.06769230769231,0
2.06820512820513,0
2.06871794871795,0
2.06923076923077,0
2.06974358974359,0
2.07025641025641,0
2.07076923076923,0
2.07128205128205,0
2.07179487179487,0
2.07230769230769,0
2.07282051282051,0
2.07333333333333,0
2.07384615384615,0
2.07435897435897,0
2.07487179487179,0
2.07538461538462,0
2.07589743589744,0
2.07641025641026,0
2.07692307692308,0
2.0774358974359,0
2.07794871794872,0
2.07846153846154,0
2.07897435897436,0
2.07948717948718,0
2.08,0
2.08051282051282,0
2.08102564102564,0
2.08153846153846,0
2.08205128205128,0
2.0825641025641,0
2.08307692307692,0
2.08358974358974,0
2.08410256410256,0
2.08461538461538,0
2.08512820512821,0
2.08564102564103,0
2.08615384615385,0
2.08666666666667,0
2.08717948717949,0
2.08769230769231,0
2.08820512820513,0
2.08871794871795,0
2.08923076923077,0
2.08974358974359,0
2.09025641025641,0
2.09076923076923,0
2.09128205128205,0
2.09179487179487,0
2.09230769230769,0
2.09282051282051,0
2.09333333333333,0
2.09384615384615,0
2.09435897435897,0
2.09487179487179,0
2.09538461538462,0
2.09589743589744,0
2.09641025641026,0
2.09692307692308,0
2.0974358974359,0
2.09794871794872,0
2.09846153846154,0
2.09897435897436,0
2.09948717948718,0
2.1,0
2.10051282051282,0
2.10102564102564,0
2.10153846153846,0
2.10205128205128,0
2.1025641025641,0
2.10307692307692,0
2.10358974358974,0
2.10410256410256,0
2.10461538461538,0
2.10512820512821,0
2.10564102564103,0
2.10615384615385,0
2.10666666666667,0
2.10717948717949,0
2.10769230769231,0
2.10820512820513,0
2.10871794871795,0
2.10923076923077,0
2.10974358974359,0
2.11025641025641,0
2.11076923076923,0
2.11128205128205,0
2.11179487179487,0
2.11230769230769,0
2.11282051282051,0
2.11333333333333,0
2.11384615384615,0
2.11435897435897,0
2.11487179487179,0
2.11538461538462,0
2.11589743589744,0
2.11641025641026,0
2.11692307692308,0
2.1174358974359,0
2.11794871794872,0
2.11846153846154,0
2.11897435897436,0
2.11948717948718,0
2.12,0
2.12051282051282,0
2.12102564102564,0
2.12153846153846,0
2.12205128205128,0
2.1225641025641,0
2.12307692307692,0
2.12358974358974,52.6313758930456
2.12410256410256,74.3282675569979
2.12461538461538,90.905934288631
2.12512820512821,104.822012578407
2.12564102564103,117.029857960783
2.12615384615385,128.01909579781
2.12666666666667,138.08098357374
2.12717948717949,147.405546238018
2.12769230769231,156.12494995996
2.12820512820513,164.335549530545
2.12871794871795,172.11017860733
2.12923076923077,179.50549357115
2.12974358974359,186.566606780078
2.13025641025641,193.330140458948
2.13076923076923,199.826313471363
2.13128205128205,206.080411011016
2.13179487179487,212.113846673472
2.13230769230769,217.944947177034
2.13282051282051,223.589543473342
2.13333333333333,229.061423645426
2.13384615384615,234.372685173754
2.13435897435897,239.534012636779
2.1348717948718,244.554899287322
2.13538461538462,249.443825784929
2.13589743589744,254.20840580171
2.13641025641026,258.855505716039
2.13692307692308,263.391343821319
2.1374358974359,267.821573182088
2.13794871794872,272.151351318878
2.13846153846154,276.385399196283
2.13897435897436,280.528051457107
2.13948717948718,284.58329944146
2.14,288.55482821968
2.14051282051282,292.446048627819
2.14102564102564,296.260125106966
2.14153846153846,300
2.14205128205128,303.668414842307
2.1425641025641,307.267929089441
2.14307692307692,310.800936649525
2.14358974358974,314.269680527354
2.14410256410256,317.676265837634
2.14461538461538,321.022671404304
2.14512820512821,324.310760129544
2.14564102564103,327.542288288526
2.14615384615385,330.718913883074
2.14666666666667,333.842204168303
2.14717948717949,336.913642450311
2.14769230769231,339.934634239519
2.14820512820513,342.906512832886
2.14871794871795,345.830544388576
2.14923076923077,348.707932548461
2.14974358974359,351.539822656808
2.15025641025641,354.327305617522
2.15076923076923,357.071421427142
2.15128205128205,359.773162416351
2.15179487179487,362.433476228891
2.15230769230769,365.053268563492
2.15282051282051,367.63340570146
2.15333333333333,370.174716840108
2.15384615384615,372.677996249965
2.15435897435897,375.144005271786
2.1548717948718,377.573474167693
2.15538461538462,379.967103839267
2.15589743589744,382.325567424117
2.15641025641026,384.649511781284
2.15692307692308,386.939558874797
2.1574358974359,389.196307063799
2.15794871794872,391.420332306856
2.15846153846154,393.612189287318
2.15897435897436,395.772412465972
2.15948717948718,397.901517066661
2.16,400
2.16051282051282,402.068340729886
2.16102564102564,404.107002087074
2.16153846153846,406.116431033707
2.16205128205128,408.097059382377
2.1625641025641,410.049304472969
2.16307692307692,411.973569810276
2.16358974358974,413.870245665128
2.16410256410256,415.739709641549
2.16461538461538,417.582327212252
2.16512820512821,419.398452224606
2.16564102564103,421.188427379035
2.16615384615385,422.952584681651
2.16666666666667,424.691245872796
2.16717948717949,426.404722833039
2.16769230769231,428.093317968044
2.16820512820513,429.757324573638
2.16871794871795,431.397027182303
2.16923076923077,433.012701892219
2.16974358974359,434.604616679927
2.17025641025641,436.173031697567
2.17076923076923,437.71819955563
2.17128205128205,439.240365592044
2.17179487179487,440.739768128401
2.17230769230769,442.216638714053
2.17282051282051,443.671202358761
2.17333333333333,445.10367775454
2.17384615384615,446.514277487294
2.17435897435897,447.903208238808
2.1748717948718,449.27067097961
2.17538461538462,450.616861153192
2.17589743589744,451.94196885206
2.17641025641026,453.246178986025
2.17692307692308,454.529671443155
2.1774358974359,455.792621243748
2.17794871794872,457.035198687701
2.17846153846154,458.257569495584
2.17897435897436,459.459894943757
2.17948717948718,460.642331993806
2.18,461.80503341658
2.18051282051282,462.948147911104
2.18102564102564,464.071820218582
2.18153846153846,465.176191231762
2.18205128205128,466.261398099848
2.1825641025641,467.32757432918
2.18307692307692,468.37484987988
2.18358974358974,469.403351258637
2.18410256410256,470.413201607814
2.18461538461538,471.404520791032
2.18512820512821,472.377425475398
2.18564102564103,473.332029210514
2.18615384615385,474.268442504407
2.18666666666667,475.186772896513
2.18717948717949,476.08712502785
2.18769230769231,476.969600708473
2.18820512820513,477.834298982347
2.18871794871795,478.681316189734
2.18923076923077,479.510746027193
2.18974358974359,480.322679605294
2.19025641025641,481.117205504125
2.19076923076923,481.894409826699
2.19128205128205,482.654376250315
2.19179487179487,483.397186075977
2.19230769230769,484.122918275927
2.19282051282051,484.831649539365
2.19333333333333,485.52345431643
2.19384615384615,486.198404860494
2.19435897435897,486.856571268843
2.1948717948718,487.498021521785
2.19538461538462,488.122821520249
2.19589743589744,488.731035121935
2.19641025641026,489.322724176041
2.19692307692308,489.897948556636
2.1974358974359,490.45676619471
2.19794871794872,490.999233108953
2.19846153846154,491.525403435288
2.19897435897436,492.035329455212
2.19948717948718,492.529061622977
