0,0
0.0006,0
0.0012,0
0.0018,0
0.0024,0
0.003,0
0.0036,0
0.0042,0
0.0048,0
0.0054,0
0.006,0
0.0066,0
0.0072,0
0.0078,0
0.0084,0
0.009,0
0.0096,0
0.0102,0
0.0108,0
0.0114,0
0.012,0
0.0126,0
0.0132,0
0.0138,0
0.0144,0
0.015,0
0.0156,0
0.0162,0
0.0168,0
0.0174,0
0.018,0
0.0186,0
0.0192,0
0.0198,0
0.0204,0
0.021,0
0.0216,0
0.0222,0
0.0228,0
0.0234,0
0.024,0
0.0246,0
0.0252,0
0.0258,0
0.0264,0
0.027,0
0.0276,0
0.0282,0
0.0288,0
0.0294,0
0.03,0
0.0306,0
0.0312,0
0.0318,0
0.0324,0
0.033,0
0.0336,0
0.0342,0
0.0348,0
0.0354,0
0.036,0
0.0366,0
0.0372,0
0.0378,0
0.0384,0
0.039,0
0.0396,0
0.0402,0
0.0408,0
0.0414,0
0.042,0
0.0426,0
0.0432,0
0.0438,0
0.0444,0
0.045,0
0.0456,0
0.0462,0
0.0468,0
0.0474,0
0.048,0
0.0486,0
0.0492,0
0.0498,0
0.0504,0
0.051,0
0.0516,0
0.0522,0
0.0528,0
0.0534,0
0.054,0
0.0546,0
0.0552,0
0.0558,0
0.0564,0
0.057,0
0.0576,0
0.0582,0
0.0588,0
0.0594,0
0.06,0
0.0606,0
0.0612,0
0.0618,0
0.0624,0
0.063,0
0.0636,0
0.0642,0
0.0648,0
0.0654,0
0.066,0
0.0666,0
0.0672,0
0.0678,0
0.0684,0
0.069,0
0.0696,0
0.0702,0
0.0708,0
0.0714,0
0.072,0
0.0726,0
0.0732,0
0.0738,0
0.0744,0
0.075,0
0.0756,0
0.0762,0
0.0768,0
0.0774,0
0.078,0
0.0786,0
0.0792,0
0.0798,0
0.0804,0
0.081,0
0.0816,0
0.0822,0
0.0828,0
0.0834,0
0.084,0
0.0846,0
0.0852,0
0.0858,0
0.0864,0
0.087,0
0.0876,0
0.0882,0
0.0888,0
0.0894,0
0.09,0
0.0906,0
0.0912,0
0.0918,0
0.0924,0
0.093,0
0.0936,0
0.0942,0
0.0948,0
0.0954,0
0.096,0
0.0966,0
0.0972,0
0.0978,0
0.0984,0
0.099,0
0.0996,0
0.1002,0
0.1008,0
0.1014,0
0.102,0
0.1026,0
0.1032,0
0.1038,0
0.1044,0
0.105,0
0.1056,0
0.1062,0
0.1068,0
0.1074,0
0.108,0
0.1086,0
0.1092,0
0.1098,0
0.1104,0
0.111,0
0.1116,0
0.1122,0
0.1128,0
0.1134,0
0.114,0
0.1146,0
0.1152,0
0.1158,0
0.1164,0
0.117,0
0.1176,0
0.1182,0
0.1188,0
0.1194,0
0.12,0
0.1206,0
0.1212,0
0.1218,0
0.1224,0
0.123,0
0.1236,0
0.1242,0
0.1248,0
0.1254,0
0.126,0
0.1266,0
0.1272,0
0.1278,0
0.1284,0
0.129,0
0.1296,0
0.1302,0
0.1308,0
0.1314,0
0.132,0
0.1326,0
0.1332,0
0.1338,0
0.1344,0
0.135,0
0.1356,0
0.1362,0
0.1368,0
0.1374,0
0.138,0
0.1386,0
0.1392,0
0.1398,0
0.1404,0
0.141,0
0.1416,0
0.1422,0
0.1428,0
0.1434,0
0.144,0
0.1446,0
0.1452,0
0.1458,0
0.1464,0
0.147,0
0.1476,0
0.1482,0
0.1488,0
0.1494,0
0.15,0
0.1506,0
0.1512,0
0.1518,0
0.1524,0
0.153,0
0.1536,0
0.1542,0
0.1548,0
0.1554,0
0.156,0
0.1566,0
0.1572,0
0.1578,0
0.1584,0
0.159,0
0.1596,0
0.1602,0
0.1608,0
0.1614,0
0.162,0
0.1626,0
0.1632,0
0.1638,0
0.1644,0
0.165,0
0.1656,0
0.1662,0
0.1668,0
0.1674,0
0.168,0
0.1686,0
0.1692,0
0.1698,0
0.1704,0
0.171,0
0.1716,0
0.1722,0
0.1728,0
0.1734,0
0.174,0
0.1746,0
0.1752,0
0.1758,0
0.1764,0
0.177,0
0.1776,0
0.1782,0
0.1788,0
0.1794,0
0.18,0
0.1806,99.9999999999927
0.1812,199.999999999993
0.1818,299.999999999993
0.1824,399.999999999993
0.183,499.999999999993
0.1836,599.999999999993
0.1842,699.999999999993
0.1848,799.999999999993
0.1854,899.999999999993
0.186,999.999999999993
0.1866,1099.99999999999
0.1872,1199.99999999999
0.1878,1300
0.1884,1400
0.189,1500
0.1896,1600
0.1902,1700
0.1908,1800
0.1914,1900
0.192,2000
0.1926,2100
0.1932,2200
0.1938,2300
0.1944,2400
0.195,2500
0.1956,2600
0.1962,2700
0.1968,2800
0.1974,2900
0.198,3000
0.1986,3100
0.1992,3200
0.1998,3300
0.2004,3400
0.201,3500
0.2016,3600
0.2022,3700
0.2028,3800
0.2034,3900
0.204,4000
0.2046,4100
0.2052,4200
0.2058,4300
0.2064,4399.99999999999
0.207,4499.99999999999
0.2076,4599.99999999999
0.2082,4699.99999999999
0.2088,4799.99999999999
0.2094,4899.99999999999
0.21,4999.99999999999
0.2106,5099.99999999999
0.2112,5199.99999999999
0.2118,5299.99999999999
0.2124,5399.99999999999
0.213,5499.99999999999
0.2136,5599.99999999999
0.2142,5699.99999999999
0.2148,5799.99999999999
0.2154,5899.99999999999
0.216,5999.99999999999
0.2166,6099.99999999999
0.2172,6199.99999999999
0.2178,6299.99999999999
0.2184,6399.99999999999
0.219,6499.99999999999
0.2196,6599.99999999999
0.2202,6699.99999999999
0.2208,6799.99999999999
0.2214,6899.99999999999
0.222,6999.99999999999
0.2226,7099.99999999999
0.2232,7199.99999999999
0.2238,7299.99999999999
0.2244,7399.99999999999
0.225,7499.99999999999
0.2256,7600
0.2262,7700
0.2268,7800
0.2274,7900
0.228,8000
0.2286,8100
0.2292,8200
0.2298,8300
0.2304,8400
0.231,8500
0.2316,8600
0.2322,8700
0.2328,8700
0.2334,8600
0.234,8500
0.2346,8400
0.2352,8300
0.2358,8200
0.2364,8100
0.237,8000
0.2376,7900
0.2382,7800
0.2388,7700
0.2394,7600
0.24,7500
0.2406,7400
0.2412,7300
0.2418,7200
0.2424,7100
0.243,7000
0.2436,6900
0.2442,6800.00000000001
0.2448,6700.00000000001
0.2454,6600.00000000001
0.246,6500.00000000001
0.2466,6400.00000000001
0.2472,6300.00000000001
0.2478,6200.00000000001
0.2484,6100.00000000001
0.249,6000.00000000001
0.2496,5900.00000000001
0.2502,5800.00000000001
0.2508,5700.00000000001
0.2514,5600.00000000001
0.252,5500.00000000001
0.2526,5400.00000000001
0.2532,5300.00000000001
0.2538,5200
0.2544,5100
0.255,5000
0.2556,4900
0.2562,4800
0.2568,4700
0.2574,4600
0.258,4500
0.2586,4400
0.2592,4300
0.2598,4200
0.2604,4100
0.261,4000
0.2616,3900
0.2622,3800
0.2628,3700
0.2634,3600
0.264,3500
0.2646,3400
0.2652,3300
0.2658,3200
0.2664,3100
0.267,3000
0.2676,2900
0.2682,2800
0.2688,2700
0.2694,2600
0.27,2500
0.2706,2400
0.2712,2300
0.2718,2200
0.2724,2100
0.273,2000
0.2736,1900
0.2742,1800
0.2748,1700
0.2754,1600
0.276,1500
0.2766,1400
0.2772,1300
0.2778,1200
0.2784,1100
0.279,1000
0.2796,900
0.2802,800
0.2808,700
0.2814,600.000000000007
0.282,500
0.2826,400
0.2832,300
0.2838,200
0.2844,100
0.285,0
0.2856,-100
0.2862,-200
0.2868,-300
0.2874,-400
0.288,-500
0.2886,-600
0.2892,-700
0.2898,-800
0.2904,-900
0.291,-1000
0.2916,-1100
0.2922,-1200
0.2928,-1200.00000000001
0.2934,-1100.00000000001
0.294,-1000.00000000001
0.2946,-900.000000000007
0.2952,-800
0.2958,-700
0.2964,-600
0.297,-500
0.2976,-400
0.2982,-300
0.2988,-200
0.2994,-100
0.3,0
0.3006,0
0.3012,0
0.3018,0
0.3024,0
0.303,0
0.3036,0
0.3042,0
0.3048,0
0.3054,0
0.306,0
0.3066,0
0.3072,0
0.3078,0
0.3084,0
0.309,0
0.3096,0
0.3102,0
0.3108,0
0.3114,0
0.312,0
0.3126,0
0.3132,0
0.3138,0
0.3144,0
0.315,0
0.3156,0
0.3162,0
0.3168,0
0.3174,0
0.318,0
0.3186,0
0.3192,0
0.3198,0
0.3204,0
0.321,0
0.3216,0
0.3222,0
0.3228,0
0.3234,0
0.324,0
0.3246,0
0.3252,0
0.3258,0
0.3264,0
0.327,0
0.3276,0
0.3282,0
0.3288,0
0.3294,0
0.33,0
0.3306,0
0.3312,0
0.3318,0
0.3324,0
0.333,0
0.3336,0
0.3342,0
0.3348,0
0.3354,0
0.336,0
0.3366,0
0.3372,0
0.3378,0
0.3384,0
0.339,0
0.3396,0
0.3402,0
0.3408,0
0.3414,0
0.342,0
0.3426,0
0.3432,0
0.3438,0
0.3444,0
0.345,0
0.3456,0
0.3462,0
0.3468,0
0.3474,0
0.348,0
0.3486,0
0.3492,0
0.3498,0
0.3504,0
0.351,0
0.3516,0
0.3522,0
0.3528,0
0.3534,0
0.354,0
0.3546,0
0.3552,0
0.3558,0
0.3564,0
0.357,0
0.3576,0
0.3582,0
0.3588,0
0.3594,0
0.36,0
0.3606,0
0.3612,0
0.3618,0
0.3624,0
0.363,0
0.3636,0
0.3642,0
0.3648,0
0.3654,0
0.366,0
0.3666,0
0.3672,0
0.3678,0
0.3684,0
0.369,0
0.3696,0
0.3702,0
0.3708,0
0.3714,0
0.372,0
0.3726,0
0.3732,0
0.3738,0
0.3744,0
0.375,0
0.3756,0
0.3762,0
0.3768,0
0.3774,0
0.378,0
0.3786,0
0.3792,0
0.3798,0
0.3804,0
0.381,0
0.3816,0
0.3822,0
0.3828,0
0.3834,0
0.384,0
0.3846,52.6313758930456
0.3852,74.3282675569979
0.3858,90.905934288631
0.3864,104.822012578407
0.387,117.029857960783
0.3876,128.01909579781
0.3882,138.08098357374
0.3888,147.405546238018
0.3894,156.12494995996
0.39,164.335549530545
0.3906,172.11017860733
0.3912,179.50549357115
0.3918,186.566606780078
0.3924,193.330140458948
0.393,199.826313471363
0.3936,206.080411011016
0.3942,212.113846673472
0.3948,217.944947177034
0.3954,223.589543473342
0.396,229.061423645426
0.3966,234.372685173754
0.3972,239.534012636779
0.3978,244.554899287322
0.3984,249.443825784929
0.399,254.20840580171
0.3996,258.855505716039
0.4002,263.391343821319
0.4008,267.821573182088
0.4014,272.151351318878
0.402,276.385399196283
0.4026,280.528051457107
0.4032,284.58329944146
0.4038,288.55482821968
0.4044,292.446048627819
0.405,296.260125106966
0.4056,300
0.4062,303.668414842307
0.4068,307.267929089441
0.4074,310.800936649525
0.408,314.269680527354
0.4086,317.676265837634
0.4092,321.022671404304
0.4098,324.310760129544
0.4104,327.542288288526
0.411,330.718913883074
0.4116,333.842204168303
0.4122,336.913642450311
0.4128,339.934634239519
0.4134,342.906512832886
0.414,345.830544388576
0.4146,348.707932548461
0.4152,351.539822656808
0.4158,354.327305617522
0.4164,357.071421427142
0.417,359.773162416351
0.4176,362.433476228891
0.4182,365.053268563492
0.4188,367.63340570146
0.4194,370.174716840108
0.42,372.677996249965
0.4206,375.144005271786
0.4212,377.573474167693
0.4218,379.967103839267
0.4224,382.325567424117
0.423,384.649511781284
0.4236,386.939558874797
0.4242,389.196307063799
0.4248,391.420332306856
0.4254,393.612189287318
0.426,395.772412465972
0.4266,397.901517066661
0.4272,400
0.4278,402.068340729886
0.4284,404.107002087074
0.429,406.116431033707
0.4296,408.097059382377
0.4302,410.049304472969
0.4308,411.973569810276
0.4314,413.870245665128
0.432,415.739709641549
0.4326,417.582327212252
0.4332,419.398452224606
0.4338,421.188427379035
0.4344,422.952584681651
0.435,424.691245872796
0.4356,426.404722833039
0.4362,428.093317968044
0.4368,429.757324573638
0.4374,431.397027182303
0.438,433.012701892219
0.4386,434.604616679927
0.4392,436.173031697567
0.4398,437.71819955563
0.4404,439.240365592044
0.441,440.739768128401
0.4416,442.216638714053
0.4422,443.671202358761
0.4428,445.10367775454
0.4434,446.514277487294
0.444,447.903208238808
0.4446,449.27067097961
0.4452,450.616861153192
0.4458,451.94196885206
0.4464,453.246178986025
0.447,454.529671443155
0.4476,455.792621243748
0.4482,457.035198687701
0.4488,458.257569495584
0.4494,459.459894943757
0.45,460.642331993806
0.4506,461.80503341658
0.4512,462.948147911104
0.4518,464.071820218582
0.4524,465.176191231762
0.453,466.261398099848
0.4536,467.32757432918
0.4542,468.37484987988
0.4548,469.403351258637
0.4554,470.413201607814
0.456,471.404520791032
0.4566,472.377425475398
0.4572,473.332029210514
0.4578,474.268442504407
0.4584,475.186772896513
0.459,476.08712502785
0.4596,476.969600708473
0.4602,477.834298982347
0.4608,478.681316189734
0.4614,479.510746027193
0.462,480.322679605294
0.4626,481.117205504125
0.4632,481.894409826699
0.4638,482.654376250315
0.4644,483.397186075977
0.465,484.122918275927
0.4656,484.831649539365
0.4662,485.52345431643
0.4668,486.198404860494
0.4674,486.856571268843
0.468,487.498021521785
0.4686,488.122821520249
0.4692,488.731035121935
0.4698,489.322724176041
0.4704,489.897948556636
0.471,490.45676619471
0.4716,490.999233108953
0.4722,491.525403435288
0.4728,492.035329455212
0.4734,492.529061622977
0.474,493.006648591635
0.4746,493.468137237994
0.4752,493.913572686508
0.4758,494.34299833213
0.4764,494.756455862158
0.477,495.153985277108
0.4776,495.535624910617
0.4782,495.901411448428
0.4788,496.25137994646
0.4794,496.585563847986
0.48,496.903994999953
0.4806,497.206703668444
0.4812,497.49371855331
0.4818,497.765066801995
0.4824,498.020774022555
0.483,498.260864295892
0.4836,498.485360187225
0.4842,498.694282756802
0.4848,498.887651569859
0.4854,499.065484705856
0.486,499.227798766984
0.4866,499.374608885955
0.4872,499.505928733089
0.4878,499.621770522709
0.4884,499.722145018832
0.489,499.807061540183
0.4896,499.876527964533
0.4902,499.930550732355
0.4908,499.969134849812
0.4914,499.992283891079
0.492,500
0.4926,499.992283891079
0.4932,499.969134849812
0.4938,499.930550732355
0.4944,499.876527964533
0.495,499.807061540183
0.4956,499.722145018832
0.4962,499.621770522709
0.4968,499.505928733089
0.4974,499.374608885955
0.498,499.227798766984
0.4986,499.065484705856
0.4992,498.887651569859
0.4998,498.694282756802
0.5004,498.485360187225
0.501,498.260864295892
0.5016,498.020774022555
0.5022,497.765066801995
0.5028,497.49371855331
0.5034,497.206703668444
0.504,496.903994999953
0.5046,496.585563847986
0.5052,496.25137994646
0.5058,495.901411448428
0.5064,495.535624910617
0.507,495.153985277108
0.5076,494.756455862158
0.5082,494.34299833213
0.5088,493.913572686508
0.5094,493.468137237994
0.51,493.006648591635
0.5106,492.529061622977
0.5112,492.035329455212
0.5118,491.525403435288
0.5124,490.999233108953
0.513,490.45676619471
0.5136,489.897948556636
0.5142,489.322724176041
0.5148,488.731035121935
0.5154,488.122821520249
0.516,487.498021521785
0.5166,486.856571268843
0.5172,486.198404860494
0.5178,485.52345431643
0.5184,484.831649539365
0.519,484.122918275927
0.5196,483.397186075977
0.5202,482.654376250315
0.5208,481.894409826699
0.5214,481.117205504125
0.522,480.322679605294
0.5226,479.510746027193
0.5232,478.681316189734
0.5238,477.834298982347
0.5244,476.969600708473
0.525,476.08712502785
0.5256,475.186772896513
0.5262,474.268442504407
0.5268,473.332029210514
0.5274,472.377425475398
0.528,471.404520791032
0.5286,470.413201607814
0.5292,469.403351258637
0.5298,468.37484987988
0.5304,467.32757432918
0.531,466.261398099848
0.5316,465.176191231762
0.5322,464.071820218582
0.5328,462.948147911104
0.5334,461.80503341658
0.534,460.642331993806
0.5346,459.459894943757
0.5352,458.257569495584
0.5358,457.035198687701
0.5364,455.792621243748
0.537,454.529671443155
0.5376,453.246178986025
0.5382,451.94196885206
0.5388,450.616861153192
0.5394,449.27067097961
0.54,447.903208238808
0.5406,446.514277487294
0.5412,445.10367775454
0.5418,443.671202358761
0.5424,442.216638714053
0.543,440.739768128401
0.5436,439.240365592044
0.5442,437.71819955563
0.5448,436.173031697567
0.5454,434.604616679927
0.546,433.012701892219
0.5466,431.397027182303
0.5472,429.757324573638
0.5478,428.093317968044
0.5484,426.404722833039
0.549,424.691245872796
0.5496,422.952584681651
0.5502,421.188427379035
0.5508,419.398452224606
0.5514,417.582327212252
0.552,415.739709641549
0.5526,413.870245665128
0.5532,411.973569810276
0.5538,410.049304472969
0.5544,408.097059382377
0.555,406.116431033707
0.5556,404.107002087074
0.5562,402.068340729886
0.5568,400
0.5574,397.901517066661
0.558,395.772412465972
0.5586,393.612189287318
0.5592,391.420332306856
0.5598,389.196307063799
0.5604,386.939558874797
0.561,384.649511781284
0.5616,382.325567424117
0.5622,379.967103839267
0.5628,377.573474167693
0.5634,375.144005271786
0.564,372.677996249965
0.5646,370.174716840108
0.5652,367.63340570146
0.5658,365.053268563492
0.5664,362.433476228891
0.567,359.773162416351
0.5676,357.071421427142
0.5682,354.327305617522
0.5688,351.539822656808
0.5694,348.707932548461
0.57,345.830544388576
0.5706,342.906512832886
0.5712,339.934634239519
0.5718,336.913642450311
0.5724,333.842204168303
0.573,330.718913883074
0.5736,327.542288288526
0.5742,324.310760129544
0.5748,321.022671404304
0.5754,317.676265837634
0.576,314.269680527354
0.5766,310.800936649525
0.5772,307.267929089441
0.5778,303.668414842307
0.5784,300
0.579,296.260125106966
0.5796,292.446048627819
0.5802,288.55482821968
0.5808,284.58329944146
0.5814,280.528051457107
0.582,276.385399196283
0.5826,272.151351318878
0.5832,267.821573182088
0.5838,263.391343821319
0.5844,258.855505716039
0.585,254.20840580171
0.5856,249.443825784929
0.5862,244.554899287322
0.5868,239.534012636779
0.5874,234.372685173754
0.588,229.061423645426
0.5886,223.589543473342
0.5892,217.944947177034
0.5898,212.113846673472
0.5904,206.080411011016
0.591,199.826313471363
0.5916,193.330140458948
0.5922,186.566606780078
0.5928,179.50549357115
0.5934,172.11017860733
0.594,164.335549530545
0.5946,156.12494995996
0.5952,147.405546238018
0.5958,138.08098357374
0.5964,128.01909579781
0.597,117.029857960783
0.5976,104.822012578407
0.5982,90.905934288631
0.5988,74.3282675569979
0.5994,52.6313758930456
0.6,0
0.6006,0
0.6012,0
0.6018,0
0.6024,0
0.603,0
0.6036,0
0.6042,0
0.6048,0
0.6054,0
0.606,0
0.6066,0
0.6072,0
0.6078,0
0.6084,0
0.609,0
0.6096,0
0.6102,0
0.6108,0
0.6114,0
0.612,0
0.6126,0
0.6132,0
0.6138,0
0.6144,0
0.615,0
0.6156,0
0.6162,0
0.6168,0
0.6174,0
0.618,0
0.6186,0
0.6192,0
0.6198,0
0.6204,0
0.621,0
0.6216,0
0.6222,0
0.6228,0
0.6234,0
0.624,0
0.6246,0
0.6252,0
0.6258,0
0.6264,0
0.627,0
0.6276,0
0.6282,0
0.6288,0
0.6294,0
0.63,0
0.6306,0
0.6312,0
0.6318,0
0.6324,0
0.633,0
0.6336,0
0.6342,0
0.6348,0
0.6354,0
0.636,0
0.6366,0
0.6372,0
0.6378,0
0.6384,0
0.639,0
0.6396,0
0.6402,0
0.6408,0
0.6414,0
0.642,0
0.6426,0
0.6432,0
0.6438,0
0.6444,0
0.645,0
0.6456,0
0.6462,0
0.6468,0
0.6474,0
0.648,0
0.6486,0
0.6492,0
0.6498,0
0.6504,0
0.651,0
0.6516,0
0.6522,0
0.6528,0
0.6534,0
0.654,0
0.6546,0
0.6552,0
0.6558,0
0.6564,0
0.657,0
0.6576,0
0.6582,0
0.6588,0
0.6594,0
0.66,0
0.6606,0
0.6612,0
0.6618,0
0.6624,0
0.663,0
0.6636,0
0.6642,0
0.6648,0
0.6654,0
0.666,0
0.6666,0
0.6672,0
0.6678,0
0.6684,0
0.669,0
0.6696,0
0.6702,0
0.6708,0
0.6714,0
0.672,0
0.6726,0
0.6732,0
0.6738,0
0.6744,0
0.675,0
0.6756,0
0.6762,0
0.6768,0
0.6774,0
0.678,0
0.6786,0
0.6792,0
0.6798,0
0.6804,0
0.681,0
0.6816,0
0.6822,0
0.6828,0
0.6834,0
0.684,0
0.6846,0
0.6852,0
0.6858,0
0.6864,0
0.687,0
0.6876,0
0.6882,0
0.6888,0
0.6894,0
0.69,0
0.6906,0
0.6912,0
0.6918,0
0.6924,0
0.693,0
0.6936,0
0.6942,0
0.6948,0
0.6954,0
0.696,0
0.6966,0
0.6972,0
0.6978,0
0.6984,0
0.699,0
0.6996,0
0.7002,0
0.7008,0
0.7014,0
0.702,0
0.7026,0
0.7032,0
0.7038,0
0.7044,0
0.705,0
0.7056,0
0.7062,0
0.7068,0
0.7074,0
0.708,0
0.7086,0
0.7092,0
0.7098,0
0.7104,0
0.711,0
0.7116,0
0.7122,0
0.7128,0
0.7134,0
0.714,0
0.7146,0
0.7152,0
0.7158,0
0.7164,0
0.717,0
0.7176,0
0.7182,0
0.7188,0
0.7194,0
0.72,0
0.7206,0
0.7212,0
0.7218,0
0.7224,0
0.723,0
0.7236,0
0.7242,0
0.7248,0
0.7254,0
0.726,0
0.7266,0
0.7272,0
0.7278,0
0.7284,0
0.729,0
0.7296,0
0.7302,0
0.7308,0
0.7314,0
0.732,0
0.7326,0
0.7332,0
0.7338,0
0.7344,0
0.735,0
0.7356,0
0.7362,0
0.7368,0
0.7374,0
0.738,0
0.7386,0
0.7392,0
0.7398,0
0.7404,0
0.741,0
0.7416,0
0.7422,0
0.7428,0
0.7434,0
0.744,0
0.7446,0
0.7452,0
0.7458,0
0.7464,0
0.747,0
0.7476,0
0.7482,0
0.7488,0
0.7494,0
0.75,0
0.7506,0
0.7512,0
0.7518,0
0.7524,0
0.753,0
0.7536,0
0.7542,0
0.7548,0
0.7554,0
0.756,0
0.7566,0
0.7572,0
0.7578,0
0.7584,0
0.759,0
0.7596,0
0.7602,0
0.7608,0
0.7614,0
0.762,0
0.7626,0
0.7632,0
0.7638,0
0.7644,0
0.765,0
0.7656,0
0.7662,0
0.7668,0
0.7674,0
0.768,0
0.7686,0
0.7692,0
0.7698,0
0.7704,0
0.771,0
0.7716,0
0.7722,0
0.7728,0
0.7734,0
0.774,0
0.7746,0
0.7752,0
0.7758,0
0.7764,0
0.777,0
0.7776,0
0.7782,0
0.7788,0
0.7794,0
0.78,0
0.7806,100
0.7812,200
0.7818,300
0.7824,400
0.783,500
0.7836,600
0.7842,700
0.7848,800.000000000015
0.7854,900
0.786,1000.00000000001
0.7866,1099.99999999999
0.7872,1200.00000000001
0.7878,1299.99999999999
0.7884,1400.00000000001
0.789,1499.99999999999
0.7896,1600.00000000001
0.7902,1699.99999999999
0.7908,1800.00000000001
0.7914,1899.99999999999
0.792,2000.00000000001
0.7926,2099.99999999999
0.7932,2200.00000000001
0.7938,2299.99999999999
0.7944,2400.00000000001
0.795,2499.99999999999
0.7956,2600.00000000001
0.7962,2699.99999999999
0.7968,2800.00000000001
0.7974,2900.00000000001
0.798,3000.00000000001
0.7986,3100.00000000001
0.7992,3200.00000000001
0.7998,3300.00000000001
0.8004,3400.00000000001
0.801,3500.00000000001
0.8016,3600.00000000001
0.8022,3700.00000000001
0.8028,3800.00000000001
0.8034,3900.00000000001
0.804,4000.00000000001
0.8046,4100.00000000001
0.8052,4200.00000000001
0.8058,4300.00000000001
0.8064,4400.00000000001
0.807,4500.00000000001
0.8076,4600.00000000001
0.8082,4700.00000000001
0.8088,4800.00000000001
0.8094,4900.00000000001
0.81,5000.00000000001
0.8106,5100.00000000001
0.8112,5200.00000000001
0.8118,5300.00000000001
0.8124,5400.00000000001
0.813,5500.00000000001
0.8136,5600.00000000001
0.8142,5700.00000000001
0.8148,5800.00000000001
0.8154,5900.00000000001
0.816,6000.00000000001
0.8166,6100.00000000001
0.8172,6200.00000000001
0.8178,6300.00000000001
0.8184,6400.00000000001
0.819,6500.00000000001
0.8196,6600.00000000001
0.8202,6700.00000000001
0.8208,6800.00000000001
0.8214,6900.00000000001
0.822,7000.00000000001
0.8226,7100.00000000001
0.8232,7200.00000000001
0.8238,7300.00000000001
0.8244,7400.00000000001
0.825,7500.00000000001
0.8256,7599.99999999999
0.8262,7700.00000000001
0.8268,7799.99999999999
0.8274,7900.00000000001
0.828,7999.99999999999
0.8286,8100.00000000001
0.8292,8199.99999999999
0.8298,8300.00000000001
0.8304,8399.99999999999
0.831,8500.00000000001
0.8316,8600.00000000001
0.8322,8700.00000000001
0.8328,8700.00000000003
0.8334,8600
0.834,8500.00000000003
0.8346,8400
0.8352,8300.00000000003
0.8358,8200
0.8364,8100.00000000003
0.837,8000
0.8376,7900.00000000003
0.8382,7800
0.8388,7700.00000000003
0.8394,7600
0.84,7500.00000000003
0.8406,7400
0.8412,7300.00000000003
0.8418,7200
0.8424,7100.00000000003
0.843,7000
0.8436,6900.00000000003
0.8442,6800
0.8448,6700.00000000003
0.8454,6600
0.846,6500.00000000003
0.8466,6400
0.8472,6300.00000000003
0.8478,6200
0.8484,6100.00000000003
0.849,6000
0.8496,5900.00000000003
0.8502,5800
0.8508,5700.00000000003
0.8514,5600
0.852,5500.00000000003
0.8526,5400
0.8532,5300.00000000003
0.8538,5200
0.8544,5100.00000000003
0.855,5000
0.8556,4900.00000000003
0.8562,4800
0.8568,4700.00000000003
0.8574,4600
0.858,4500.00000000003
0.8586,4400
0.8592,4300.00000000003
0.8598,4200
0.8604,4100.00000000003
0.861,4000
0.8616,3900.00000000003
0.8622,3800
0.8628,3700.00000000003
0.8634,3600
0.864,3500.00000000003
0.8646,3400
0.8652,3300.00000000003
0.8658,3200
0.8664,3100.00000000003
0.867,3000
0.8676,2900.00000000003
0.8682,2800
0.8688,2700.00000000003
0.8694,2600
0.87,2500.00000000003
0.8706,2400
0.8712,2300.00000000003
0.8718,2200
0.8724,2100.00000000003
0.873,2000
0.8736,1900.00000000003
0.8742,1800
0.8748,1700.00000000003
0.8754,1600
0.876,1500.00000000003
0.8766,1400
0.8772,1300.00000000003
0.8778,1200
0.8784,1100.00000000003
0.879,1000
0.8796,900.000000000029
0.8802,800
0.8808,700.000000000029
0.8814,600
0.882,500.000000000029
0.8826,400
0.8832,300.000000000029
0.8838,200
0.8844,100.000000000029
0.885,0
0.8856,-99.9999999999709
0.8862,-200
0.8868,-299.999999999971
0.8874,-400
0.888,-499.999999999971
0.8886,-600
0.8892,-699.999999999971
0.8898,-800
0.8904,-899.999999999971
0.891,-1000
0.8916,-1099.99999999997
0.8922,-1200
0.8928,-1200
0.8934,-1100
0.894,-1000
0.8946,-900
0.8952,-800
0.8958,-700
0.8964,-600
0.897,-500
0.8976,-400
0.8982,-300
0.8988,-200
0.8994,-100
0.9,0
0.9006,0
0.9012,0
0.9018,0
0.9024,0
0.903,0
0.9036,0
0.9042,0
0.9048,0
0.9054,0
0.906,0
0.9066,0
0.9072,0
0.9078,0
0.9084,0
0.909,0
0.9096,0
0.9102,0
0.9108,0
0.9114,0
0.912,0
0.9126,0
0.9132,0
0.9138,0
0.9144,0
0.915,0
0.9156,0
0.9162,0
0.9168,0
0.9174,0
0.918,0
0.9186,0
0.9192,0
0.9198,0
0.9204,0
0.921,0
0.9216,0
0.9222,0
0.9228,0
0.9234,0
0.924,0
0.9246,0
0.9252,0
0.9258,0
0.9264,0
0.927,0
0.9276,0
0.9282,0
0.9288,0
0.9294,0
0.93,0
0.9306,0
0.9312,0
0.9318,0
0.9324,0
0.933,0
0.9336,0
0.9342,0
0.9348,0
0.9354,0
0.936,0
0.9366,0
0.9372,0
0.9378,0
0.9384,0
0.939,0
0.9396,0
0.9402,0
0.9408,0
0.9414,0
0.942,0
0.9426,0
0.9432,0
0.9438,0
0.9444,0
0.945,0
0.9456,0
0.9462,0
0.9468,0
0.9474,0
0.948,0
0.9486,0
0.9492,0
0.9498,0
0.9504,0
0.951,0
0.9516,0
0.9522,0
0.9528,0
0.9534,0
0.954,0
0.9546,0
0.9552,0
0.9558,0
0.9564,0
0.957,0
0.9576,0
0.9582,0
0.9588,0
0.9594,0
0.96,0
0.9606,0
0.9612,0
0.9618,0
0.9624,0
0.963,0
0.9636,0
0.9642,0
0.9648,0
0.9654,0
0.966,0
0.9666,0
0.9672,0
0.9678,0
0.9684,0
0.969,0
0.9696,0
0.9702,0
0.9708,0
0.9714,0
0.972,0
0.9726,0
0.9732,0
0.9738,0
0.9744,0
0.975,0
0.9756,0
0.9762,0
0.9768,0
0.9774,0
0.978,0
0.9786,0
0.9792,0
0.9798,0
0.9804,0
0.981,0
0.9816,0
0.9822,0
0.9828,0
0.9834,0
0.984,0
0.9846,52.6313758930456
0.9852,74.3282675569979
0.9858,90.905934288631
0.9864,104.822012578407
0.987,117.029857960783
0.9876,128.01909579781
0.9882,138.08098357374
0.9888,147.405546238018
0.9894,156.12494995996
0.99,164.335549530545
0.9906,172.11017860733
0.9912,179.50549357115
0.9918,186.566606780078
0.9924,193.330140458948
0.993,199.826313471363
0.9936,206.080411011016
0.9942,212.113846673472
0.9948,217.944947177034
0.9954,223.589543473342
0.996,229.061423645426
0.9966,234.372685173754
0.9972,239.534012636779
0.9978,244.554899287322
0.9984,249.443825784929
0.999,254.20840580171
0.9996,258.855505716039
1.0002,263.391343821319
1.0008,267.821573182088
1.0014,272.151351318878
1.002,276.385399196283
1.0026,280.528051457107
1.0032,284.58329944146
1.0038,288.55482821968
1.0044,292.446048627819
1.005,296.260125106966
1.0056,300
1.0062,303.668414842307
1.0068,307.267929089441
1.0074,310.800936649525
1.008,314.269680527354
1.0086,317.676265837634
1.0092,321.022671404304
1.0098,324.310760129544
1.0104,327.542288288526
1.011,330.718913883074
1.0116,333.842204168303
1.0122,336.913642450311
1.0128,339.934634239519
1.0134,342.906512832886
1.014,345.830544388576
1.0146,348.707932548461
1.0152,351.539822656808
1.0158,354.327305617522
1.0164,357.071421427142
1.017,359.773162416351
1.0176,362.433476228891
1.0182,365.053268563492
1.0188,367.63340570146
1.0194,370.174716840108
1.02,372.677996249965
1.0206,375.144005271786
1.0212,377.573474167693
1.0218,379.967103839267
1.0224,382.325567424117
1.023,384.649511781284
1.0236,386.939558874797
1.0242,389.196307063799
1.0248,391.420332306856
1.0254,393.612189287318
1.026,395.772412465972
1.0266,397.901517066661
1.0272,400
1.0278,402.068340729886
1.0284,404.107002087074
1.029,406.116431033707
1.0296,408.097059382377
1.0302,410.049304472969
1.0308,411.973569810276
1.0314,413.870245665128
1.032,415.739709641549
1.0326,417.582327212252
1.0332,419.398452224606
1.0338,421.188427379035
1.0344,422.952584681651
1.035,424.691245872796
1.0356,426.404722833039
1.0362,428.093317968044
1.0368,429.757324573638
1.0374,431.397027182303
1.038,433.012701892219
1.0386,434.604616679927
1.0392,436.173031697567
1.0398,437.71819955563
1.0404,439.240365592044
1.041,440.739768128401
1.0416,442.216638714053
1.0422,443.671202358761
1.0428,445.10367775454
1.0434,446.514277487294
1.044,447.903208238808
1.0446,449.27067097961
1.0452,450.616861153192
1.0458,451.94196885206
1.0464,453.246178986025
1.047,454.529671443155
1.0476,455.792621243748
1.0482,457.035198687701
1.0488,458.257569495584
1.0494,459.459894943757
1.05,460.642331993806
1.0506,461.80503341658
1.0512,462.948147911104
1.0518,464.071820218582
1.0524,465.176191231762
1.053,466.261398099848
1.0536,467.32757432918
1.0542,468.37484987988
1.0548,469.403351258637
1.0554,470.413201607814
1.056,471.404520791032
1.0566,472.377425475398
1.0572,473.332029210514
1.0578,474.268442504407
1.0584,475.186772896513
1.059,476.08712502785
1.0596,476.969600708473
1.0602,477.834298982347
1.0608,478.681316189734
1.0614,479.510746027193
1.062,480.322679605294
1.0626,481.117205504125
1.0632,481.894409826699
1.0638,482.654376250315
1.0644,483.397186075977
1.065,484.122918275927
1.0656,484.831649539365
1.0662,485.52345431643
1.0668,486.198404860494
1.0674,486.856571268843
1.068,487.498021521785
1.0686,488.122821520249
1.0692,488.731035121935
1.0698,489.322724176041
1.0704,489.897948556636
1.071,490.45676619471
1.0716,490.999233108953
1.0722,491.525403435288
1.0728,492.035329455212
1.0734,492.529061622977
1.074,493.006648591635
1.0746,493.468137237994
1.0752,493.913572686508
1.0758,494.34299833213
1.0764,494.756455862158
1.077,495.153985277108
1.0776,495.535624910617
1.0782,495.901411448428
1.0788,496.25137994646
1.0794,496.585563847986
1.08,496.903994999953
1.0806,497.206703668444
1.0812,497.49371855331
1.0818,497.765066801995
1.0824,498.020774022555
1.083,498.260864295892
1.0836,498.485360187225
1.0842,498.694282756802
1.0848,498.887651569859
1.0854,499.065484705856
1.086,499.227798766984
1.0866,499.374608885955
1.0872,499.505928733089
1.0878,499.621770522709
1.0884,499.722145018832
1.089,499.807061540183
1.0896,499.876527964533
1.0902,499.930550732355
1.0908,499.969134849812
1.0914,499.992283891079
1.092,500
1.0926,499.992283891079
1.0932,499.969134849812
1.0938,499.930550732355
1.0944,499.876527964533
1.095,499.807061540183
1.0956,499.722145018832
1.0962,499.621770522709
1.0968,499.505928733089
1.0974,499.374608885955
1.098,499.227798766984
1.0986,499.065484705856
1.0992,498.887651569859
1.0998,498.694282756802
1.1004,498.485360187225
1.101,498.260864295892
1.1016,498.020774022555
1.1022,497.765066801995
1.1028,497.49371855331
1.1034,497.206703668444
1.104,496.903994999953
1.1046,496.585563847986
1.1052,496.25137994646
1.1058,495.901411448428
1.1064,495.535624910617
1.107,495.153985277108
1.1076,494.756455862158
1.1082,494.34299833213
1.1088,493.913572686508
1.1094,493.468137237994
1.11,493.006648591635
1.1106,492.529061622977
1.1112,492.035329455212
1.1118,491.525403435288
1.1124,490.999233108953
1.113,490.45676619471
1.1136,489.897948556636
1.1142,489.322724176041
1.1148,488.731035121935
1.1154,488.122821520249
1.116,487.498021521785
1.1166,486.856571268843
1.1172,486.198404860494
1.1178,485.52345431643
1.1184,484.831649539365
1.119,484.122918275927
1.1196,483.397186075977
1.1202,482.654376250315
1.1208,481.894409826699
1.1214,481.117205504125
1.122,480.322679605294
1.1226,479.510746027193
1.1232,478.681316189734
1.1238,477.834298982347
1.1244,476.969600708473
1.125,476.08712502785
1.1256,475.186772896513
1.1262,474.268442504407
1.1268,473.332029210514
1.1274,472.377425475398
1.128,471.404520791032
1.1286,470.413201607814
1.1292,469.403351258637
1.1298,468.37484987988
1.1304,467.32757432918
1.131,466.261398099848
1.1316,465.176191231762
1.1322,464.071820218582
1.1328,462.948147911104
1.1334,461.80503341658
1.134,460.642331993806
1.1346,459.459894943757
1.1352,458.257569495584
1.1358,457.035198687701
1.1364,455.792621243748
1.137,454.529671443155
1.1376,453.246178986025
1.1382,451.94196885206
1.1388,450.616861153192
1.1394,449.27067097961
1.14,447.903208238808
1.1406,446.514277487294
1.1412,445.10367775454
1.1418,443.671202358761
1.1424,442.216638714053
1.143,440.739768128401
1.1436,439.240365592044
1.1442,437.71819955563
1.1448,436.173031697567
1.1454,434.604616679927
1.146,433.012701892219
1.1466,431.397027182303
1.1472,429.757324573638
1.1478,428.093317968044
1.1484,426.404722833039
1.149,424.691245872796
1.1496,422.952584681651
1.1502,421.188427379035
1.1508,419.398452224606
1.1514,417.582327212252
1.152,415.739709641549
1.1526,413.870245665128
1.1532,411.973569810276
1.1538,410.049304472969
1.1544,408.097059382377
1.155,406.116431033707
1.1556,404.107002087074
1.1562,402.068340729886
1.1568,400
1.1574,397.901517066661
1.158,395.772412465972
1.1586,393.612189287318
1.1592,391.420332306856
1.1598,389.196307063799
1.1604,386.939558874797
1.161,384.649511781284
1.1616,382.325567424117
1.1622,379.967103839267
1.1628,377.573474167693
1.1634,375.144005271786
1.164,372.677996249965
1.1646,370.174716840108
1.1652,367.63340570146
1.1658,365.053268563492
1.1664,362.433476228891
1.167,359.773162416351
1.1676,357.071421427142
1.1682,354.327305617522
1.1688,351.539822656808
1.1694,348.707932548461
1.17,345.830544388576
1.1706,342.906512832886
1.1712,339.934634239519
1.1718,336.913642450311
1.1724,333.842204168303
1.173,330.718913883074
1.1736,327.542288288526
1.1742,324.310760129544
1.1748,321.022671404304
1.1754,317.676265837634
1.176,314.269680527354
1.1766,310.800936649525
1.1772,307.267929089441
1.1778,303.668414842307
1.1784,300
1.179,296.260125106966
1.1796,292.446048627819
1.1802,288.55482821968
1.1808,284.58329944146
1.1814,280.528051457107
1.182,276.385399196283
1.1826,272.151351318878
1.1832,267.821573182088
1.1838,263.391343821319
1.1844,258.855505716039
1.185,254.20840580171
1.1856,249.443825784929
1.1862,244.554899287322
1.1868,239.534012636779
1.1874,234.372685173754
1.188,229.061423645426
1.1886,223.589543473342
1.1892,217.944947177034
1.1898,212.113846673472
1.1904,206.080411011016
1.191,199.826313471363
1.1916,193.330140458948
1.1922,186.566606780078
1.1928,179.50549357115
1.1934,172.11017860733
1.194,164.335549530545
1.1946,156.12494995996
1.1952,147.405546238018
1.1958,138.08098357374
1.1964,128.01909579781
1.197,117.029857960783
1.1976,104.822012578407
1.1982,90.905934288631
1.1988,74.3282675569979
1.1994,52.6313758930456
1.2,0
1.2006,0
1.2012,0
1.2018,0
1.2024,0
1.203,0
1.2036,0
1.2042,0
1.2048,0
1.2054,0
1.206,0
1.2066,0
1.2072,0
1.2078,0
1.2084,0
1.209,0
1.2096,0
1.2102,0
1.2108,0
1.2114,0
1.212,0
1.2126,0
1.2132,0
1.2138,0
1.2144,0
1.215,0
1.2156,0
1.2162,0
1.2168,0
1.2174,0
1.218,0
1.2186,0
1.2192,0
1.2198,0
1.2204,0
1.221,0
1.2216,0
1.2222,0
1.2228,0
1.2234,0
1.224,0
1.2246,0
1.2252,0
1.2258,0
1.2264,0
1.227,0
1.2276,0
1.2282,0
1.2288,0
1.2294,0
1.23,0
1.2306,0
1.2312,0
1.2318,0
1.2324,0
1.233,0
1.2336,0
1.2342,0
1.2348,0
1.2354,0
1.236,0
1.2366,0
1.2372,0
1.2378,0
1.2384,0
1.239,0
1.2396,0
1.2402,0
1.2408,0
1.2414,0
1.242,0
1.2426,0
1.2432,0
1.2438,0
1.2444,0
1.245,0
1.2456,0
1.2462,0
1.2468,0
1.2474,0
1.248,0
1.2486,0
1.2492,0
1.2498,0
1.2504,0
1.251,0
1.2516,0
1.2522,0
1.2528,0
1.2534,0
1.254,0
1.2546,0
1.2552,0
1.2558,0
1.2564,0
1.257,0
1.2576,0
1.2582,0
1.2588,0
1.2594,0
1.26,0
1.2606,0
1.2612,0
1.2618,0
1.2624,0
1.263,0
1.2636,0
1.2642,0
1.2648,0
1.2654,0
1.266,0
1.2666,0
1.2672,0
1.2678,0
1.2684,0
1.269,0
1.2696,0
1.2702,0
1.2708,0
1.2714,0
1.272,0
1.2726,0
1.2732,0
1.2738,0
1.2744,0
1.275,0
1.2756,0
1.2762,0
1.2768,0
1.2774,0
1.278,0
1.2786,0
1.2792,0
1.2798,0
1.2804,0
1.281,0
1.2816,0
1.2822,0
1.2828,0
1.2834,0
1.284,0
1.2846,0
1.2852,0
1.2858,0
1.2864,0
1.287,0
1.2876,0
1.2882,0
1.2888,0
1.2894,0
1.29,0
1.2906,0
1.2912,0
1.2918,0
1.2924,0
1.293,0
1.2936,0
1.2942,0
1.2948,0
1.2954,0
1.296,0
1.2966,0
1.2972,0
1.2978,0
1.2984,0
1.299,0
1.2996,0
1.3002,0
1.3008,0
1.3014,0
1.302,0
1.3026,0
1.3032,0
1.3038,0
1.3044,0
1.305,0
1.3056,0
1.3062,0
1.3068,0
1.3074,0
1.308,0
1.3086,0
1.3092,0
1.3098,0
1.3104,0
1.311,0
1.3116,0
1.3122,0
1.3128,0
1.3134,0
1.314,0
1.3146,0
1.3152,0
1.3158,0
1.3164,0
1.317,0
1.3176,0
1.3182,0
1.3188,0
1.3194,0
1.32,0
1.3206,0
1.3212,0
1.3218,0
1.3224,0
1.323,0
1.3236,0
1.3242,0
1.3248,0
1.3254,0
1.326,0
1.3266,0
1.3272,0
1.3278,0
1.3284,0
1.329,0
1.3296,0
1.3302,0
1.3308,0
1.3314,0
1.332,0
1.3326,0
1.3332,0
1.3338,0
1.3344,0
1.335,0
1.3356,0
1.3362,0
1.3368,0
1.3374,0
1.338,0
1.3386,0
1.3392,0
1.3398,0
1.3404,0
1.341,0
1.3416,0
1.3422,0
1.3428,0
1.3434,0
1.344,0
1.3446,0
1.3452,0
1.3458,0
1.3464,0
1.347,0
1.3476,0
1.3482,0
1.3488,0
1.3494,0
1.35,0
1.3506,0
1.3512,0
1.3518,0
1.3524,0
1.353,0
1.3536,0
1.3542,0
1.3548,0
1.3554,0
1.356,0
1.3566,0
1.3572,0
1.3578,0
1.3584,0
1.359,0
1.3596,0
1.3602,0
1.3608,0
1.3614,0
1.362,0
1.3626,0
1.3632,0
1.3638,0
1.3644,0
1.365,0
1.3656,0
1.3662,0
1.3668,0
1.3674,0
1.368,0
1.3686,0
1.3692,0
1.3698,0
1.3704,0
1.371,0
1.3716,0
1.3722,0
1.3728,0
1.3734,0
1.374,0
1.3746,0
1.3752,0
1.3758,0
1.3764,0
1.377,0
1.3776,0
1.3782,0
1.3788,0
1.3794,0
1.38,0
1.3806,100.000000000058
1.3812,200.000000000029
1.3818,300.000000000029
1.3824,400
1.383,500.000000000058
1.3836,600.000000000029
1.3842,700.000000000029
1.3848,800
1.3854,900.000000000058
1.386,1000.00000000003
1.3866,1100.00000000003
1.3872,1200.00000000003
1.3878,1300.00000000006
1.3884,1400.00000000003
1.389,1500.00000000003
1.3896,1600.00000000003
1.3902,1700.00000000006
1.3908,1800.00000000003
1.3914,1900.00000000003
1.392,2000.00000000003
1.3926,2100.00000000006
1.3932,2200.00000000003
1.3938,2300.00000000003
1.3944,2400.00000000003
1.395,2500.00000000006
1.3956,2600.00000000003
1.3962,2700.00000000003
1.3968,2800.00000000003
1.3974,2900.00000000006
1.398,3000.00000000003
1.3986,3100.00000000003
1.3992,3200.00000000003
1.3998,3300.00000000006
1.4004,3400.00000000003
1.401,3500.00000000003
1.4016,3600.00000000003
1.4022,3700.00000000006
1.4028,3800.00000000003
1.4034,3900.00000000003
1.404,4000.00000000003
1.4046,4100.00000000006
1.4052,4200.00000000003
1.4058,4300.00000000003
1.4064,4400.00000000003
1.407,4500.00000000006
1.4076,4600.00000000006
1.4082,4700.00000000003
1.4088,4800.00000000003
1.4094,4900.00000000006
1.41,5000.00000000006
1.4106,5100.00000000003
1.4112,5200.00000000003
1.4118,5300.00000000006
1.4124,5400.00000000006
1.413,5500.00000000003
1.4136,5600.00000000003
1.4142,5700.00000000006
1.4148,5800.00000000006
1.4154,5900.00000000003
1.416,6000.00000000003
1.4166,6100.00000000006
1.4172,6200.00000000006
1.4178,6300.00000000003
1.4184,6400.00000000003
1.419,6500.00000000006
1.4196,6600.00000000006
1.4202,6700.00000000003
1.4208,6800.00000000003
1.4214,6900.00000000006
1.422,7000.00000000006
1.4226,7100.00000000003
1.4232,7200.00000000003
1.4238,7300.00000000006
1.4244,7400.00000000006
1.425,7500.00000000003
1.4256,7600.00000000003
1.4262,7700.00000000003
1.4268,7800.00000000006
1.4274,7900.00000000003
1.428,8000.00000000003
1.4286,8100.00000000003
1.4292,8200.00000000006
1.4298,8300.00000000003
1.4304,8400.00000000003
1.431,8500.00000000003
1.4316,8600.00000000006
1.4322,8700.00000000003
1.4328,8700
1.4334,8600
1.434,8499.99999999997
1.4346,8399.99999999997
1.4352,8300
1.4358,8200
1.4364,8099.99999999997
1.437,7999.99999999997
1.4376,7900
1.4382,7800
1.4388,7699.99999999997
1.4394,7599.99999999997
1.44,7500
1.4406,7400
1.4412,7299.99999999997
1.4418,7199.99999999997
1.4424,7100
1.443,7000
1.4436,6899.99999999997
1.4442,6799.99999999997
1.4448,6700
1.4454,6600
1.446,6499.99999999997
1.4466,6399.99999999997
1.4472,6300
1.4478,6200
1.4484,6099.99999999997
1.449,5999.99999999997
1.4496,5900
1.4502,5800
1.4508,5699.99999999997
1.4514,5599.99999999997
1.452,5500
1.4526,5400
1.4532,5299.99999999997
1.4538,5199.99999999997
1.4544,5100
1.455,5000
1.4556,4899.99999999997
1.4562,4799.99999999997
1.4568,4700
1.4574,4600
1.458,4499.99999999997
1.4586,4399.99999999997
1.4592,4300
1.4598,4200
1.4604,4099.99999999997
1.461,3999.99999999997
1.4616,3900
1.4622,3800
1.4628,3699.99999999997
1.4634,3599.99999999997
1.464,3500
1.4646,3400
1.4652,3299.99999999997
1.4658,3199.99999999997
1.4664,3100
1.467,3000
1.4676,2899.99999999997
1.4682,2799.99999999997
1.4688,2700
1.4694,2600
1.47,2499.99999999997
1.4706,2399.99999999997
1.4712,2300
1.4718,2200
1.4724,2099.99999999997
1.473,1999.99999999997
1.4736,1900
1.4742,1800
1.4748,1699.99999999997
1.4754,1599.99999999997
1.476,1500
1.4766,1400
1.4772,1299.99999999997
1.4778,1199.99999999997
1.4784,1100
1.479,1000
1.4796,899.999999999971
1.4802,799.999999999971
1.4808,700
1.4814,600
1.482,499.999999999971
1.4826,399.999999999971
1.4832,300
1.4838,200
1.4844,99.9999999999709
1.485,-2.91038304567337e-11
1.4856,-100
1.4862,-200
1.4868,-300.000000000029
1.4874,-400.000000000029
1.488,-500
1.4886,-600
1.4892,-700.000000000029
1.4898,-800.000000000029
1.4904,-900
1.491,-1000
1.4916,-1100.00000000003
1.4922,-1200.00000000003
1.4928,-1200
1.4934,-1100
1.494,-999.999999999971
1.4946,-900
1.4952,-800
1.4958,-700.000000000029
1.4964,-599.999999999971
1.497,-500
1.4976,-400
1.4982,-300.000000000029
1.4988,-200
1.4994,-100
1.5,0
1.5006,0
1.5012,0
1.5018,0
1.5024,0
1.503,0
1.5036,0
1.5042,0
1.5048,0
1.5054,0
1.506,0
1.5066,0
1.5072,0
1.5078,0
1.5084,0
1.509,0
1.5096,0
1.5102,0
1.5108,0
1.5114,0
1.512,0
1.5126,0
1.5132,0
1.5138,0
1.5144,0
1.515,0
1.5156,0
1.5162,0
1.5168,0
1.5174,0
1.518,0
1.5186,0
1.5192,0
1.5198,0
1.5204,0
1.521,0
1.5216,0
1.5222,0
1.5228,0
1.5234,0
1.524,0
1.5246,0
1.5252,0
1.5258,0
1.5264,0
1.527,0
1.5276,0
1.5282,0
1.5288,0
1.5294,0
1.53,0
1.5306,0
1.5312,0
1.5318,0
1.5324,0
1.533,0
1.5336,0
1.5342,0
1.5348,0
1.5354,0
1.536,0
1.5366,0
1.5372,0
1.5378,0
1.5384,0
1.539,0
1.5396,0
1.5402,0
1.5408,0
1.5414,0
1.542,0
1.5426,0
1.5432,0
1.5438,0
1.5444,0
1.545,0
1.5456,0
1.5462,0
1.5468,0
1.5474,0
1.548,0
1.5486,0
1.5492,0
1.5498,0
1.5504,0
1.551,0
1.5516,0
1.5522,0
1.5528,0
1.5534,0
1.554,0
1.5546,0
1.5552,0
1.5558,0
1.5564,0
1.557,0
1.5576,0
1.5582,0
1.5588,0
1.5594,0
1.56,0
1.5606,0
1.5612,0
1.5618,0
1.5624,0
1.563,0
1.5636,0
1.5642,0
1.5648,0
1.5654,0
1.566,0
1.5666,0
1.5672,0
1.5678,0
1.5684,0
1.569,0
1.5696,0
1.5702,0
1.5708,0
1.5714,0
1.572,0
1.5726,0
1.5732,0
1.5738,0
1.5744,0
1.575,0
1.5756,0
1.5762,0
1.5768,0
1.5774,0
1.578,0
1.5786,0
1.5792,0
1.5798,0
1.5804,0
1.581,0
1.5816,0
1.5822,0
1.5828,0
1.5834,0
1.584,0
1.5846,52.6313758930456
1.5852,74.3282675569979
1.5858,90.905934288631
1.5864,104.822012578407
1.587,117.029857960783
1.5876,128.01909579781
1.5882,138.08098357374
1.5888,147.405546238018
1.5894,156.12494995996
1.59,164.335549530545
1.5906,172.11017860733
1.5912,179.50549357115
1.5918,186.566606780078
1.5924,193.330140458948
1.593,199.826313471363
1.5936,206.080411011016
1.5942,212.113846673472
1.5948,217.944947177034
1.5954,223.589543473342
1.596,229.061423645426
1.5966,234.372685173754
1.5972,239.534012636779
1.5978,244.554899287322
1.5984,249.443825784929
1.599,254.20840580171
1.5996,258.855505716039
1.6002,263.391343821319
1.6008,267.821573182088
1.6014,272.151351318878
1.602,276.385399196283
1.6026,280.528051457107
1.6032,284.58329944146
1.6038,288.55482821968
1.6044,292.446048627819
1.605,296.260125106966
1.6056,300
1.6062,303.668414842307
1.6068,307.267929089441
1.6074,310.800936649525
1.608,314.269680527354
1.6086,317.676265837634
1.6092,321.022671404304
1.6098,324.310760129544
1.6104,327.542288288526
1.611,330.718913883074
1.6116,333.842204168303
1.6122,336.913642450311
1.6128,339.934634239519
1.6134,342.906512832886
1.614,345.830544388576
1.6146,348.707932548461
1.6152,351.539822656808
1.6158,354.327305617522
1.6164,357.071421427142
1.617,359.773162416351
1.6176,362.433476228891
1.6182,365.053268563492
1.6188,367.63340570146
1.6194,370.174716840108
1.62,372.677996249965
1.6206,375.144005271786
1.6212,377.573474167693
1.6218,379.967103839267
1.6224,382.325567424117
1.623,384.649511781284
1.6236,386.939558874797
1.6242,389.196307063799
1.6248,391.420332306856
1.6254,393.612189287318
1.626,395.772412465972
1.6266,397.901517066661
1.6272,400
1.6278,402.068340729886
1.6284,404.107002087074
1.629,406.116431033707
1.6296,408.097059382377
1.6302,410.049304472969
1.6308,411.973569810276
1.6314,413.870245665128
1.632,415.739709641549
1.6326,417.582327212252
1.6332,419.398452224606
1.6338,421.188427379035
1.6344,422.952584681651
1.635,424.691245872796
1.6356,426.404722833039
1.6362,428.093317968044
1.6368,429.757324573638
1.6374,431.397027182303
1.638,433.012701892219
1.6386,434.604616679927
1.6392,436.173031697567
1.6398,437.71819955563
1.6404,439.240365592044
1.641,440.739768128401
1.6416,442.216638714053
1.6422,443.671202358761
1.6428,445.10367775454
1.6434,446.514277487294
1.644,447.903208238808
1.6446,449.27067097961
1.6452,450.616861153192
1.6458,451.94196885206
1.6464,453.246178986025
1.647,454.529671443155
1.6476,455.792621243748
1.6482,457.035198687701
1.6488,458.257569495584
1.6494,459.459894943757
1.65,460.642331993806
1.6506,461.80503341658
1.6512,462.948147911104
1.6518,464.071820218582
1.6524,465.176191231762
1.653,466.261398099848
1.6536,467.32757432918
1.6542,468.37484987988
1.6548,469.403351258637
1.6554,470.413201607814
1.656,471.404520791032
1.6566,472.377425475398
1.6572,473.332029210514
1.6578,474.268442504407
1.6584,475.186772896513
1.659,476.08712502785
1.6596,476.969600708473
1.6602,477.834298982347
1.6608,478.681316189734
1.6614,479.510746027193
1.662,480.322679605294
1.6626,481.117205504125
1.6632,481.894409826699
1.6638,482.654376250315
1.6644,483.397186075977
1.665,484.122918275927
1.6656,484.831649539365
1.6662,485.52345431643
1.6668,486.198404860494
1.6674,486.856571268843
1.668,487.498021521785
1.6686,488.122821520249
1.6692,488.731035121935
1.6698,489.322724176041
1.6704,489.897948556636
1.671,490.45676619471
1.6716,490.999233108953
1.6722,491.525403435288
1.6728,492.035329455212
1.6734,492.529061622977
1.674,493.006648591635
1.6746,493.468137237994
1.6752,493.913572686508
1.6758,494.34299833213
1.6764,494.756455862158
1.677,495.153985277108
1.6776,495.535624910617
1.6782,495.901411448428
1.6788,496.25137994646
1.6794,496.585563847986
1.68,496.903994999953
1.6806,497.206703668444
1.6812,497.49371855331
1.6818,497.765066801995
1.6824,498.020774022555
1.683,498.260864295892
1.6836,498.485360187225
1.6842,498.694282756802
1.6848,498.887651569859
1.6854,499.065484705856
1.686,499.227798766984
1.6866,499.374608885955
1.6872,499.505928733089
1.6878,499.621770522709
1.6884,499.722145018832
1.689,499.807061540183
1.6896,499.876527964533
1.6902,499.930550732355
1.6908,499.969134849812
1.6914,499.992283891079
1.692,500
1.6926,499.992283891079
1.6932,499.969134849812
1.6938,499.930550732355
1.6944,499.876527964533
1.695,499.807061540183
1.6956,499.722145018832
1.6962,499.621770522709
1.6968,499.505928733089
1.6974,499.374608885955
1.698,499.227798766984
1.6986,499.065484705856
1.6992,498.887651569859
1.6998,498.694282756802
1.7004,498.485360187225
1.701,498.260864295892
1.7016,498.020774022555
1.7022,497.765066801995
1.7028,497.49371855331
1.7034,497.206703668444
1.704,496.903994999953
1.7046,496.585563847986
1.7052,496.25137994646
1.7058,495.901411448428
1.7064,495.535624910617
1.707,495.153985277108
1.7076,494.756455862158
1.7082,494.34299833213
1.7088,493.913572686508
1.7094,493.468137237994
1.71,493.006648591635
1.7106,492.529061622977
1.7112,492.035329455212
1.7118,491.525403435288
1.7124,490.999233108953
1.713,490.45676619471
1.7136,489.897948556636
1.7142,489.322724176041
1.7148,488.731035121935
1.7154,488.122821520249
1.716,487.498021521785
1.7166,486.856571268843
1.7172,486.198404860494
1.7178,485.52345431643
1.7184,484.831649539365
1.719,484.122918275927
1.7196,483.397186075977
1.7202,482.654376250315
1.7208,481.894409826699
1.7214,481.117205504125
1.722,480.322679605294
1.7226,479.510746027193
1.7232,478.681316189734
1.7238,477.834298982347
1.7244,476.969600708473
1.725,476.08712502785
1.7256,475.186772896513
1.7262,474.268442504407
1.7268,473.332029210514
1.7274,472.377425475398
1.728,471.404520791032
1.7286,470.413201607814
1.7292,469.403351258637
1.7298,468.37484987988
1.7304,467.32757432918
1.731,466.261398099848
1.7316,465.176191231762
1.7322,464.071820218582
1.7328,462.948147911104
1.7334,461.80503341658
1.734,460.642331993806
1.7346,459.459894943757
1.7352,458.257569495584
1.7358,457.035198687701
1.7364,455.792621243748
1.737,454.529671443155
1.7376,453.246178986025
1.7382,451.94196885206
1.7388,450.616861153192
1.7394,449.27067097961
1.74,447.903208238808
1.7406,446.514277487294
1.7412,445.10367775454
1.7418,443.671202358761
1.7424,442.216638714053
1.743,440.739768128401
1.7436,439.240365592044
1.7442,437.71819955563
1.7448,436.173031697567
1.7454,434.604616679927
1.746,433.012701892219
1.7466,431.397027182303
1.7472,429.757324573638
1.7478,428.093317968044
1.7484,426.404722833039
1.749,424.691245872796
1.7496,422.952584681651
1.7502,421.188427379035
1.7508,419.398452224606
1.7514,417.582327212252
1.752,415.739709641549
1.7526,413.870245665128
1.7532,411.973569810276
1.7538,410.049304472969
1.7544,408.097059382377
1.755,406.116431033707
1.7556,404.107002087074
1.7562,402.068340729886
1.7568,400
1.7574,397.901517066661
1.758,395.772412465972
1.7586,393.612189287318
1.7592,391.420332306856
1.7598,389.196307063799
1.7604,386.939558874797
1.761,384.649511781284
1.7616,382.325567424117
1.7622,379.967103839267
1.7628,377.573474167693
1.7634,375.144005271786
1.764,372.677996249965
1.7646,370.174716840108
1.7652,367.63340570146
1.7658,365.053268563492
1.7664,362.433476228891
1.767,359.773162416351
1.7676,357.071421427142
1.7682,354.327305617522
1.7688,351.539822656808
1.7694,348.707932548461
1.77,345.830544388576
1.7706,342.906512832886
1.7712,339.934634239519
1.7718,336.913642450311
1.7724,333.842204168303
1.773,330.718913883074
1.7736,327.542288288526
1.7742,324.310760129544
1.7748,321.022671404304
1.7754,317.676265837634
1.776,314.269680527354
1.7766,310.800936649525
1.7772,307.267929089441
1.7778,303.668414842307
1.7784,300
1.779,296.260125106966
1.7796,292.446048627819
1.7802,288.55482821968
1.7808,284.58329944146
1.7814,280.528051457107
1.782,276.385399196283
1.7826,272.151351318878
1.7832,267.821573182088
1.7838,263.391343821319
1.7844,258.855505716039
1.785,254.20840580171
1.7856,249.443825784929
1.7862,244.554899287322
1.7868,239.534012636779
1.7874,234.372685173754
1.788,229.061423645426
1.7886,223.589543473342
1.7892,217.944947177034
1.7898,212.113846673472
1.7904,206.080411011016
1.791,199.826313471363
1.7916,193.330140458948
1.7922,186.566606780078
1.7928,179.50549357115
1.7934,172.11017860733
1.794,164.335549530545
1.7946,156.12494995996
1.7952,147.405546238018
1.7958,138.08098357374
1.7964,128.01909579781
1.797,117.029857960783
1.7976,104.822012578407
1.7982,90.905934288631
1.7988,74.3282675569979
1.7994,52.6313758930456
1.8,0
1.8006,0
1.8012,0
1.8018,0
1.8024,0
1.803,0
1.8036,0
1.8042,0
1.8048,0
1.8054,0
1.806,0
1.8066,0
1.8072,0
1.8078,0
1.8084,0
1.809,0
1.8096,0
1.8102,0
1.8108,0
1.8114,0
1.812,0
1.8126,0
1.8132,0
1.8138,0
1.8144,0
1.815,0
1.8156,0
1.8162,0
1.8168,0
1.8174,0
1.818,0
1.8186,0
1.8192,0
1.8198,0
1.8204,0
1.821,0
1.8216,0
1.8222,0
1.8228,0
1.8234,0
1.824,0
1.8246,0
1.8252,0
1.8258,0
1.8264,0
1.827,0
1.8276,0
1.8282,0
1.8288,0
1.8294,0
1.83,0
1.8306,0
1.8312,0
1.8318,0
1.8324,0
1.833,0
1.8336,0
1.8342,0
1.8348,0
1.8354,0
1.836,0
1.8366,0
1.8372,0
1.8378,0
1.8384,0
1.839,0
1.8396,0
1.8402,0
1.8408,0
1.8414,0
1.842,0
1.8426,0
1.8432,0
1.8438,0
1.8444,0
1.845,0
1.8456,0
1.8462,0
1.8468,0
1.8474,0
1.848,0
1.8486,0
1.8492,0
1.8498,0
1.8504,0
1.851,0
1.8516,0
1.8522,0
1.8528,0
1.8534,0
1.854,0
1.8546,0
1.8552,0
1.8558,0
1.8564,0
1.857,0
1.8576,0
1.8582,0
1.8588,0
1.8594,0
1.86,0
1.8606,0
1.8612,0
1.8618,0
1.8624,0
1.863,0
1.8636,0
1.8642,0
1.8648,0
1.8654,0
1.866,0
1.8666,0
1.8672,0
1.8678,0
1.8684,0
1.869,0
1.8696,0
1.8702,0
1.8708,0
1.8714,0
1.872,0
1.8726,0
1.8732,0
1.8738,0
1.8744,0
1.875,0
1.8756,0
1.8762,0
1.8768,0
1.8774,0
1.878,0
1.8786,0
1.8792,0
1.8798,0
1.8804,0
1.881,0
1.8816,0
1.8822,0
1.8828,0
1.8834,0
1.884,0
1.8846,0
1.8852,0
1.8858,0
1.8864,0
1.887,0
1.8876,0
1.8882,0
1.8888,0
1.8894,0
1.89,0
1.8906,0
1.8912,0
1.8918,0
1.8924,0
1.893,0
1.8936,0
1.8942,0
1.8948,0
1.8954,0
1.896,0
1.8966,0
1.8972,0
1.8978,0
1.8984,0
1.899,0
1.8996,0
1.9002,0
1.9008,0
1.9014,0
1.902,0
1.9026,0
1.9032,0
1.9038,0
1.9044,0
1.905,0
1.9056,0
1.9062,0
1.9068,0
1.9074,0
1.908,0
1.9086,0
1.9092,0
1.9098,0
1.9104,0
1.911,0
1.9116,0
1.9122,0
1.9128,0
1.9134,0
1.914,0
1.9146,0
1.9152,0
1.9158,0
1.9164,0
1.917,0
1.9176,0
1.9182,0
1.9188,0
1.9194,0
1.92,0
1.9206,0
1.9212,0
1.9218,0
1.9224,0
1.923,0
1.9236,0
1.9242,0
1.9248,0
1.9254,0
1.926,0
1.9266,0
1.9272,0
1.9278,0
1.9284,0
1.929,0
1.9296,0
1.9302,0
1.9308,0
1.9314,0
1.932,0
1.9326,0
1.9332,0
1.9338,0
1.9344,0
1.935,0
1.9356,0
1.9362,0
1.9368,0
1.9374,0
1.938,0
1.9386,0
1.9392,0
1.9398,0
1.9404,0
1.941,0
1.9416,0
1.9422,0
1.9428,0
1.9434,0
1.944,0
1.9446,0
1.9452,0
1.9458,0
1.9464,0
1.947,0
1.9476,0
1.9482,0
1.9488,0
1.9494,0
1.95,0
1.9506,0
1.9512,0
1.9518,0
1.9524,0
1.953,0
1.9536,0
1.9542,0
1.9548,0
1.9554,0
1.956,0
1.9566,0
1.9572,0
1.9578,0
1.9584,0
1.959,0
1.9596,0
1.9602,0
1.9608,0
1.9614,0
1.962,0
1.9626,0
1.9632,0
1.9638,0
1.9644,0
1.965,0
1.9656,0
1.9662,0
1.9668,0
1.9674,0
1.968,0
1.9686,0
1.9692,0
1.9698,0
1.9704,0
1.971,0
1.9716,0
1.9722,0
1.9728,0
1.9734,0
1.974,0
1.9746,0
1.9752,0
1.9758,0
1.9764,0
1.977,0
1.9776,0
1.9782,0
1.9788,0
1.9794,0
1.98,0
1.9806,100.000000000058
1.9812,200.000000000058
1.9818,300.000000000058
1.9824,400
1.983,500.000000000058
1.9836,600.000000000058
1.9842,700.000000000058
1.9848,800
1.9854,900.000000000058
1.986,1000.00000000006
1.9866,1100.00000000006
1.9872,1200.00000000006
1.9878,1300.00000000006
1.9884,1400.00000000006
1.989,1500.00000000006
1.9896,1600.00000000006
1.9902,1700.00000000006
1.9908,1800.00000000006
1.9914,1900.00000000006
1.992,2000.00000000006
1.9926,2100.00000000006
1.9932,2200.00000000006
1.9938,2300.00000000006
1.9944,2400.00000000006
1.995,2500.00000000006
1.9956,2600.00000000006
1.9962,2700.00000000006
1.9968,2800.00000000006
1.9974,2900.00000000006
1.998,3000.00000000006
1.9986,3100.00000000006
1.9992,3200.00000000006
1.9998,3300.00000000006
2.0004,3400.00000000006
2.001,3500.00000000006
2.0016,3600.00000000006
2.0022,3700.00000000006
2.0028,3800.00000000006
2.0034,3900.00000000006
2.004,4000.00000000006
2.0046,4100.00000000006
2.0052,4200.00000000006
2.0058,4300.00000000006
2.0064,4400.00000000006
2.007,4500.00000000006
2.0076,4600.00000000006
2.0082,4700.00000000006
2.0088,4800.00000000006
2.0094,4900.00000000006
2.01,5000.00000000006
2.0106,5100.00000000006
2.0112,5200.00000000006
2.0118,5300.00000000006
2.0124,5400.00000000006
2.013,5500.00000000006
2.0136,5600.00000000006
2.0142,5700.00000000006
2.0148,5800.00000000006
2.0154,5900.00000000006
2.016,6000.00000000006
2.0166,6100.00000000006
2.0172,6200.00000000006
2.0178,6300.00000000006
2.0184,6400.00000000006
2.019,6500.00000000006
2.0196,6600.00000000006
2.0202,6700.00000000006
2.0208,6800.00000000006
2.0214,6900.00000000006
2.022,7000.00000000006
2.0226,7100.00000000006
2.0232,7200.00000000006
2.0238,7300.00000000006
2.0244,7400.00000000006
2.025,7500.00000000006
2.0256,7600.00000000006
2.0262,7700.00000000006
2.0268,7800.00000000006
2.0274,7900.00000000006
2.028,8000.00000000006
2.0286,8100.00000000006
2.0292,8200.00000000006
2.0298,8300.00000000006
2.0304,8400.00000000006
2.031,8500.00000000006
2.0316,8600.00000000006
2.0322,8700.00000000006
2.0328,8699.99999999994
2.0334,8599.99999999994
2.034,8499.99999999994
2.0346,8399.99999999994
2.0352,8299.99999999994
2.0358,8199.99999999994
2.0364,8099.99999999994
2.037,7999.99999999994
2.0376,7899.99999999994
2.0382,7799.99999999994
2.0388,7699.99999999994
2.0394,7599.99999999994
2.04,7499.99999999994
2.0406,7399.99999999994
2.0412,7299.99999999994
2.0418,7199.99999999994
2.0424,7099.99999999994
2.043,6999.99999999994
2.0436,6899.99999999994
2.0442,6799.99999999994
2.0448,6699.99999999994
2.0454,6599.99999999994
2.046,6499.99999999994
2.0466,6399.99999999994
2.0472,6299.99999999994
2.0478,6199.99999999994
2.0484,6099.99999999994
2.049,5999.99999999994
2.0496,5899.99999999994
2.0502,5799.99999999994
2.0508,5699.99999999994
2.0514,5599.99999999994
2.052,5499.99999999994
2.0526,5399.99999999994
2.0532,5299.99999999994
2.0538,5199.99999999994
2.0544,5099.99999999994
2.055,4999.99999999994
2.0556,4899.99999999994
2.0562,4799.99999999994
2.0568,4699.99999999994
2.0574,4599.99999999994
2.058,4499.99999999994
2.0586,4399.99999999994
2.0592,4299.99999999994
2.0598,4199.99999999994
2.0604,4099.99999999994
2.061,3999.99999999994
2.0616,3899.99999999994
2.0622,3799.99999999994
2.0628,3699.99999999994
2.0634,3599.99999999994
2.064,3499.99999999994
2.0646,3399.99999999994
2.0652,3299.99999999994
2.0658,3199.99999999994
2.0664,3099.99999999994
2.067,2999.99999999994
2.0676,2899.99999999994
2.0682,2799.99999999994
2.0688,2699.99999999994
2.0694,2599.99999999994
2.07,2499.99999999994
2.0706,2399.99999999994
2.0712,2299.99999999994
2.0718,2199.99999999994
2.0724,2099.99999999994
2.073,1999.99999999994
2.0736,1899.99999999994
2.0742,1799.99999999994
2.0748,1699.99999999994
2.0754,1599.99999999994
2.076,1499.99999999994
2.0766,1399.99999999994
2.0772,1299.99999999994
2.0778,1199.99999999994
2.0784,1099.99999999994
2.079,999.999999999942
2.0796,899.999999999942
2.0802,799.999999999942
2.0808,699.999999999942
2.0814,599.999999999942
2.082,499.999999999942
2.0826,399.999999999942
2.0832,299.999999999942
2.0838,199.999999999942
2.0844,99.9999999999418
2.085,-5.82076609134674e-11
2.0856,-100.000000000058
2.0862,-200.000000000058
2.0868,-300.000000000058
2.0874,-400.000000000058
2.088,-500.000000000058
2.0886,-600.000000000058
2.0892,-700.000000000058
2.0898,-800.000000000058
2.0904,-900.000000000058
2.091,-1000.00000000006
2.0916,-1100.00000000006
2.0922,-1200.00000000006
2.0928,-1199.99999999994
2.0934,-1100
2.094,-999.999999999942
2.0946,-899.999999999942
2.0952,-800
2.0958,-700
2.0964,-599.999999999942
2.097,-499.999999999942
2.0976,-400
2.0982,-300
2.0988,-199.999999999942
2.0994,-100
2.1,0
2.1006,0
2.1012,0
2.1018,0
2.1024,0
2.103,0
2.1036,0
2.1042,0
2.1048,0
2.1054,0
2.106,0
2.1066,0
2.1072,0
2.1078,0
2.1084,0
2.109,0
2.1096,0
2.1102,0
2.1108,0
2.1114,0
2.112,0
2.1126,0
2.1132,0
2.1138,0
2.1144,0
2.115,0
2.1156,0
2.1162,0
2.1168,0
2.1174,0
2.118,0
2.1186,0
2.1192,0
2.1198,0
2.1204,0
2.121,0
2.1216,0
2.1222,0
2.1228,0
2.1234,0
2.124,0
2.1246,0
2.1252,0
2.1258,0
2.1264,0
2.127,0
2.1276,0
2.1282,0
2.1288,0
2.1294,0
2.13,0
2.1306,0
2.1312,0
2.1318,0
2.1324,0
2.133,0
2.1336,0
2.1342,0
2.1348,0
2.1354,0
2.136,0
2.1366,0
2.1372,0
2.1378,0
2.1384,0
2.139,0
2.1396,0
2.1402,0
2.1408,0
2.1414,0
2.142,0
2.1426,0
2.1432,0
2.1438,0
2.1444,0
2.145,0
2.1456,0
2.1462,0
2.1468,0
2.1474,0
2.148,0
2.1486,0
2.1492,0
2.1498,0
2.1504,0
2.151,0
2.1516,0
2.1522,0
2.1528,0
2.1534,0
2.154,0
2.1546,0
2.1552,0
2.1558,0
2.1564,0
2.157,0
2.1576,0
2.1582,0
2.1588,0
2.1594,0
2.16,0
2.1606,0
2.1612,0
2.1618,0
2.1624,0
2.163,0
2.1636,0
2.1642,0
2.1648,0
2.1654,0
2.166,0
2.1666,0
2.1672,0
2.1678,0
2.1684,0
2.169,0
2.1696,0
2.1702,0
2.1708,0
2.1714,0
2.172,0
2.1726,0
2.1732,0
2.1738,0
2.1744,0
2.175,0
2.1756,0
2.1762,0
2.1768,0
2.1774,0
2.178,0
2.1786,0
2.1792,0
2.1798,0
2.1804,0
2.181,0
2.1816,0
2.1822,0
2.1828,0
2.1834,0
2.184,0
2.1846,52.6313758930456
2.1852,74.3282675569979
2.1858,90.905934288631
2.1864,104.822012578407
2.187,117.029857960783
2.1876,128.01909579781
2.1882,138.08098357374
2.1888,147.405546238018
2.1894,156.12494995996
2.19,164.335549530545
2.1906,172.11017860733
2.1912,179.50549357115
2.1918,186.566606780078
2.1924,193.330140458948
2.193,199.826313471363
2.1936,206.080411011016
2.1942,212.113846673472
2.1948,217.944947177034
2.1954,223.589543473342
2.196,229.061423645426
2.1966,234.372685173754
2.1972,239.534012636779
2.1978,244.554899287322
2.1984,249.443825784929
2.199,254.20840580171
2.1996,258.855505716039
2.2002,263.391343821319
2.2008,267.821573182088
2.2014,272.151351318878
2.202,276.385399196283
2.2026,280.528051457107
2.2032,284.58329944146
2.2038,288.55482821968
2.2044,292.446048627819
2.205,296.260125106966
2.2056,300
2.2062,303.668414842307
2.2068,307.267929089441
2.2074,310.800936649525
2.208,314.269680527354
2.2086,317.676265837634
2.2092,321.022671404304
2.2098,324.310760129544
2.2104,327.542288288526
2.211,330.718913883074
2.2116,333.842204168303
2.2122,336.913642450311
2.2128,339.934634239519
2.2134,342.906512832886
2.214,345.830544388576
2.2146,348.707932548461
2.2152,351.539822656808
2.2158,354.327305617522
2.2164,357.071421427142
2.217,359.773162416351
2.2176,362.433476228891
2.2182,365.053268563492
2.2188,367.63340570146
2.2194,370.174716840108
2.22,372.677996249965
2.2206,375.144005271786
2.2212,377.573474167693
2.2218,379.967103839267
2.2224,382.325567424117
2.223,384.649511781284
2.2236,386.939558874797
2.2242,389.196307063799
2.2248,391.420332306856
2.2254,393.612189287318
2.226,395.772412465972
2.2266,397.901517066661
2.2272,400
2.2278,402.068340729886
2.2284,404.107002087074
2.229,406.116431033707
2.2296,408.097059382377
2.2302,410.049304472969
2.2308,411.973569810276
2.2314,413.870245665128
2.232,415.739709641549
2.2326,417.582327212252
2.2332,419.398452224606
2.2338,421.188427379035
2.2344,422.952584681651
2.235,424.691245872796
2.2356,426.404722833039
2.2362,428.093317968044
2.2368,429.757324573638
2.2374,431.397027182303
2.238,433.012701892219
2.2386,434.604616679927
2.2392,436.173031697567
2.2398,437.71819955563
2.2404,439.240365592044
2.241,440.739768128401
2.2416,442.216638714053
2.2422,443.671202358761
2.2428,445.10367775454
2.2434,446.514277487294
2.244,447.903208238808
2.2446,449.27067097961
2.2452,450.616861153192
2.2458,451.94196885206
2.2464,453.246178986025
2.247,454.529671443155
2.2476,455.792621243748
2.2482,457.035198687701
2.2488,458.257569495584
2.2494,459.459894943757
2.25,460.642331993806
2.2506,461.80503341658
2.2512,462.948147911104
2.2518,464.071820218582
2.2524,465.176191231762
2.253,466.261398099848
2.2536,467.32757432918
2.2542,468.37484987988
2.2548,469.403351258637
2.2554,470.413201607814
2.256,471.404520791032
2.2566,472.377425475398
2.2572,473.332029210514
2.2578,474.268442504407
2.2584,475.186772896513
2.259,476.08712502785
2.2596,476.969600708473
2.2602,477.834298982347
2.2608,478.681316189734
2.2614,479.510746027193
2.262,480.322679605294
2.2626,481.117205504125
2.2632,481.894409826699
2.2638,482.654376250315
2.2644,483.397186075977
2.265,484.122918275927
2.2656,484.831649539365
2.2662,485.52345431643
2.2668,486.198404860494
2.2674,486.856571268843
2.268,487.498021521785
2.2686,488.122821520249
2.2692,488.731035121935
2.2698,489.322724176041
2.2704,489.897948556636
2.271,490.45676619471
2.2716,490.999233108953
2.2722,491.525403435288
2.2728,492.035329455212
2.2734,492.529061622977
2.274,493.006648591635
2.2746,493.468137237994
2.2752,493.913572686508
2.2758,494.34299833213
2.2764,494.756455862158
2.277,495.153985277108
2.2776,495.535624910617
2.2782,495.901411448428
2.2788,496.25137994646
2.2794,496.585563847986
2.28,496.903994999953
2.2806,497.206703668444
2.2812,497.49371855331
2.2818,497.765066801995
2.2824,498.020774022555
2.283,498.260864295892
2.2836,498.485360187225
2.2842,498.694282756802
2.2848,498.887651569859
2.2854,499.065484705856
2.286,499.227798766984
2.2866,499.374608885955
2.2872,499.505928733089
2.2878,499.621770522709
2.2884,499.722145018832
2.289,499.807061540183
2.2896,499.876527964533
2.2902,499.930550732355
2.2908,499.969134849812
2.2914,499.992283891079
2.292,500
2.2926,499.992283891079
2.2932,499.969134849812
2.2938,499.930550732355
2.2944,499.876527964533
2.295,499.807061540183
2.2956,499.722145018832
2.2962,499.621770522709
2.2968,499.505928733089
2.2974,499.374608885955
2.298,499.227798766984
2.2986,499.065484705856
2.2992,498.887651569859
2.2998,498.694282756802
2.3004,498.485360187225
2.301,498.260864295892
2.3016,498.020774022555
2.3022,497.765066801995
2.3028,497.49371855331
2.3034,497.206703668444
2.304,496.903994999953
2.3046,496.585563847986
2.3052,496.25137994646
2.3058,495.901411448428
2.3064,495.535624910617
2.307,495.153985277108
2.3076,494.756455862158
2.3082,494.34299833213
2.3088,493.913572686508
2.3094,493.468137237994
2.31,493.006648591635
2.3106,492.529061622977
2.3112,492.035329455212
2.3118,491.525403435288
2.3124,490.999233108953
2.313,490.45676619471
2.3136,489.897948556636
2.3142,489.322724176041
2.3148,488.731035121935
2.3154,488.122821520249
2.316,487.498021521785
2.3166,486.856571268843
2.3172,486.198404860494
2.3178,485.52345431643
2.3184,484.831649539365
2.319,484.122918275927
2.3196,483.397186075977
2.3202,482.654376250315
2.3208,481.894409826699
2.3214,481.117205504125
2.322,480.322679605294
2.3226,479.510746027193
2.3232,478.681316189734
2.3238,477.834298982347
2.3244,476.969600708473
2.325,476.08712502785
2.3256,475.186772896513
2.3262,474.268442504407
2.3268,473.332029210514
2.3274,472.377425475398
2.328,471.404520791032
2.3286,470.413201607814
2.3292,469.403351258637
2.3298,468.37484987988
2.3304,467.32757432918
2.331,466.261398099848
2.3316,465.176191231762
2.3322,464.071820218582
2.3328,462.948147911104
2.3334,461.80503341658
2.334,460.642331993806
2.3346,459.459894943757
2.3352,458.257569495584
2.3358,457.035198687701
2.3364,455.792621243748
2.337,454.529671443155
2.3376,453.246178986025
2.3382,451.94196885206
2.3388,450.616861153192
2.3394,449.27067097961
2.34,447.903208238808
2.3406,446.514277487294
2.3412,445.10367775454
2.3418,443.671202358761
2.3424,442.216638714053
2.343,440.739768128401
2.3436,439.240365592044
2.3442,437.71819955563
2.3448,436.173031697567
2.3454,434.604616679927
2.346,433.012701892219
2.3466,431.397027182303
2.3472,429.757324573638
2.3478,428.093317968044
2.3484,426.404722833039
2.349,424.691245872796
2.3496,422.952584681651
2.3502,421.188427379035
2.3508,419.398452224606
2.3514,417.582327212252
2.352,415.739709641549
2.3526,413.870245665128
2.3532,411.973569810276
2.3538,410.049304472969
2.3544,408.097059382377
2.355,406.116431033707
2.3556,404.107002087074
2.3562,402.068340729886
2.3568,400
2.3574,397.901517066661
2.358,395.772412465972
2.3586,393.612189287318
2.3592,391.420332306856
2.3598,389.196307063799
2.3604,386.939558874797
2.361,384.649511781284
2.3616,382.325567424117
2.3622,379.967103839267
2.3628,377.573474167693
2.3634,375.144005271786
2.364,372.677996249965
2.3646,370.174716840108
2.3652,367.63340570146
2.3658,365.053268563492
2.3664,362.433476228891
2.367,359.773162416351
2.3676,357.071421427142
2.3682,354.327305617522
2.3688,351.539822656808
2.3694,348.707932548461
2.37,345.830544388576
2.3706,342.906512832886
2.3712,339.934634239519
2.3718,336.913642450311
2.3724,333.842204168303
2.373,330.718913883074
2.3736,327.542288288526
2.3742,324.310760129544
2.3748,321.022671404304
2.3754,317.676265837634
2.376,314.269680527354
2.3766,310.800936649525
2.3772,307.267929089441
2.3778,303.668414842307
2.3784,300
2.379,296.260125106966
2.3796,292.446048627819
2.3802,288.55482821968
2.3808,284.58329944146
2.3814,280.528051457107
2.382,276.385399196283
2.3826,272.151351318878
2.3832,267.821573182088
2.3838,263.391343821319
2.3844,258.855505716039
2.385,254.20840580171
2.3856,249.443825784929
2.3862,244.554899287322
2.3868,239.534012636779
2.3874,234.372685173754
2.388,229.061423645426
2.3886,223.589543473342
2.3892,217.944947177034
2.3898,212.113846673472
2.3904,206.080411011016
2.391,199.826313471363
2.3916,193.330140458948
2.3922,186.566606780078
2.3928,179.50549357115
2.3934,172.11017860733
2.394,164.335549530545
2.3946,156.12494995996
2.3952,147.405546238018
2.3958,138.08098357374
2.3964,128.01909579781
2.397,117.029857960783
2.3976,104.822012578407
2.3982,90.905934288631
2.3988,74.3282675569979
2.3994,52.6313758930456
2.4,0
2.4006,0
2.4012,0
2.4018,0
2.4024,0
2.403,0
2.4036,0
2.4042,0
2.4048,0
2.4054,0
2.406,0
2.4066,0
2.4072,0
2.4078,0
2.4084,0
2.409,0
2.4096,0
2.4102,0
2.4108,0
2.4114,0
2.412,0
2.4126,0
2.4132,0
2.4138,0
2.4144,0
2.415,0
2.4156,0
2.4162,0
2.4168,0
2.4174,0
2.418,0
2.4186,0
2.4192,0
2.4198,0
2.4204,0
2.421,0
2.4216,0
2.4222,0
2.4228,0
2.4234,0
2.424,0
2.4246,0
2.4252,0
2.4258,0
2.4264,0
2.427,0
2.4276,0
2.4282,0
2.4288,0
2.4294,0
2.43,0
2.4306,0
2.4312,0
2.4318,0
2.4324,0
2.433,0
2.4336,0
2.4342,0
2.4348,0
2.4354,0
2.436,0
2.4366,0
2.4372,0
2.4378,0
2.4384,0
2.439,0
2.4396,0
2.4402,0
2.4408,0
2.4414,0
2.442,0
2.4426,0
2.4432,0
2.4438,0
2.4444,0
2.445,0
2.4456,0
2.4462,0
2.4468,0
2.4474,0
2.448,0
2.4486,0
2.4492,0
2.4498,0
2.4504,0
2.451,0
2.4516,0
2.4522,0
2.4528,0
2.4534,0
2.454,0
2.4546,0
2.4552,0
2.4558,0
2.4564,0
2.457,0
2.4576,0
2.4582,0
2.4588,0
2.4594,0
2.46,0
2.4606,0
2.4612,0
2.4618,0
2.4624,0
2.463,0
2.4636,0
2.4642,0
2.4648,0
2.4654,0
2.466,0
2.4666,0
2.4672,0
2.4678,0
2.4684,0
2.469,0
2.4696,0
2.4702,0
2.4708,0
2.4714,0
2.472,0
2.4726,0
2.4732,0
2.4738,0
2.4744,0
2.475,0
2.4756,0
2.4762,0
2.4768,0
2.4774,0
2.478,0
2.4786,0
2.4792,0
2.4798,0
2.4804,0
2.481,0
2.4816,0
2.4822,0
2.4828,0
2.4834,0
2.484,0
2.4846,0
2.4852,0
2.4858,0
2.4864,0
2.487,0
2.4876,0
2.4882,0
2.4888,0
2.4894,0
2.49,0
2.4906,0
2.4912,0
2.4918,0
2.4924,0
2.493,0
2.4936,0
2.4942,0
2.4948,0
2.4954,0
2.496,0
2.4966,0
2.4972,0
2.4978,0
2.4984,0
2.499,0
2.4996,0
2.5002,0
2.5008,0
2.5014,0
2.502,0
2.5026,0
2.5032,0
2.5038,0
2.5044,0
2.505,0
2.5056,0
2.5062,0
2.5068,0
2.5074,0
2.508,0
2.5086,0
2.5092,0
2.5098,0
2.5104,0
2.511,0
2.5116,0
2.5122,0
2.5128,0
2.5134,0
2.514,0
2.5146,0
2.5152,0
2.5158,0
2.5164,0
2.517,0
2.5176,0
2.5182,0
2.5188,0
2.5194,0
2.52,0
2.5206,0
2.5212,0
2.5218,0
2.5224,0
2.523,0
2.5236,0
2.5242,0
2.5248,0
2.5254,0
2.526,0
2.5266,0
2.5272,0
2.5278,0
2.5284,0
2.529,0
2.5296,0
2.5302,0
2.5308,0
2.5314,0
2.532,0
2.5326,0
2.5332,0
2.5338,0
2.5344,0
2.535,0
2.5356,0
2.5362,0
2.5368,0
2.5374,0
2.538,0
2.5386,0
2.5392,0
2.5398,0
2.5404,0
2.541,0
2.5416,0
2.5422,0
2.5428,0
2.5434,0
2.544,0
2.5446,0
2.5452,0
2.5458,0
2.5464,0
2.547,0
2.5476,0
2.5482,0
2.5488,0
2.5494,0
2.55,0
2.5506,0
2.5512,0
2.5518,0
2.5524,0
2.553,0
2.5536,0
2.5542,0
2.5548,0
2.5554,0
2.556,0
2.5566,0
2.5572,0
2.5578,0
2.5584,0
2.559,0
2.5596,0
2.5602,0
2.5608,0
2.5614,0
2.562,0
2.5626,0
2.5632,0
2.5638,0
2.5644,0
2.565,0
2.5656,0
2.5662,0
2.5668,0
2.5674,0
2.568,0
2.5686,0
2.5692,0
2.5698,0
2.5704,0
2.571,0
2.5716,0
2.5722,0
2.5728,0
2.5734,0
2.574,0
2.5746,0
2.5752,0
2.5758,0
2.5764,0
2.577,0
2.5776,0
2.5782,0
2.5788,0
2.5794,0
2.58,0
2.5806,100
2.5812,199.999999999942
2.5818,300
2.5824,400
2.583,499.999999999942
2.5836,600
2.5842,700.000000000058
2.5848,800
2.5854,900
2.586,999.999999999942
2.5866,1100
2.5872,1200
2.5878,1299.99999999994
2.5884,1400
2.589,1500
2.5896,1600
2.5902,1700
2.5908,1799.99999999994
2.5914,1900
2.592,2000
2.5926,2099.99999999994
2.5932,2200
2.5938,2300
2.5944,2399.99999999994
2.595,2500
2.5956,2599.99999999994
2.5962,2700
2.5968,2800
2.5974,2899.99999999994
2.598,3000
2.5986,3100
2.5992,3199.99999999994
2.5998,3300
2.6004,3399.99999999994
2.601,3500
2.6016,3600
2.6022,3699.99999999994
2.6028,3800
2.6034,3900
2.604,3999.99999999994
2.6046,4100
2.6052,4199.99999999994
2.6058,4300
2.6064,4400
2.607,4499.99999999994
2.6076,4600
2.6082,4700
2.6088,4799.99999999994
2.6094,4900
2.61,4999.99999999994
2.6106,5100
2.6112,5200
2.6118,5299.99999999994
2.6124,5400
2.613,5500
2.6136,5599.99999999994
2.6142,5700
2.6148,5799.99999999994
2.6154,5899.99999999994
2.616,6000
2.6166,6099.99999999994
2.6172,6200
2.6178,6300
2.6184,6399.99999999994
2.619,6500
2.6196,6599.99999999994
2.6202,6699.99999999994
2.6208,6800
2.6214,6899.99999999994
2.622,7000
2.6226,7100
2.6232,7199.99999999994
2.6238,7300
2.6244,7399.99999999994
2.625,7499.99999999994
2.6256,7600
2.6262,7699.99999999994
2.6268,7800
2.6274,7899.99999999994
2.628,7999.99999999994
2.6286,8100
2.6292,8199.99999999994
2.6298,8299.99999999994
2.6304,8400
2.631,8499.99999999994
2.6316,8600
2.6322,8699.99999999994
2.6328,8700.00000000006
2.6334,8600
2.634,8500.00000000006
2.6346,8400.00000000006
2.6352,8300
2.6358,8200.00000000006
2.6364,8100
2.637,8000.00000000006
2.6376,7900.00000000006
2.6382,7800
2.6388,7700.00000000006
2.6394,7600.00000000006
2.64,7500
2.6406,7400.00000000006
2.6412,7300
2.6418,7200.00000000006
2.6424,7100.00000000006
2.643,7000
2.6436,6900.00000000006
2.6442,6800.00000000006
2.6448,6700
2.6454,6600.00000000006
2.646,6500
2.6466,6400.00000000006
2.6472,6300.00000000006
2.6478,6200
2.6484,6100.00000000006
2.649,6000
2.6496,5900
2.6502,5800.00000000006
2.6508,5700
2.6514,5600.00000000006
2.652,5500.00000000006
2.6526,5400
2.6532,5300.00000000006
2.6538,5200
2.6544,5100
2.655,5000.00000000006
2.6556,4900
2.6562,4800.00000000006
2.6568,4700.00000000006
2.6574,4600
2.658,4500.00000000006
2.6586,4400
2.6592,4300
2.6598,4200.00000000006
2.6604,4100
2.661,4000.00000000006
2.6616,3900
2.6622,3800
2.6628,3700.00000000006
2.6634,3600
2.664,3500
2.6646,3400.00000000006
2.6652,3300
2.6658,3200.00000000006
2.6664,3100
2.667,3000
2.6676,2900.00000000006
2.6682,2800
2.6688,2700
2.6694,2600.00000000006
2.67,2500
2.6706,2400.00000000006
2.6712,2300
2.6718,2200
2.6724,2100.00000000006
2.673,2000
2.6736,1900
2.6742,1800.00000000006
2.6748,1700
2.6754,1600.00000000006
2.676,1500
2.6766,1400
2.6772,1300.00000000006
2.6778,1200
2.6784,1100
2.679,1000
2.6796,900
2.6802,800.000000000058
2.6808,700
2.6814,600
2.682,500.000000000058
2.6826,400
2.6832,299.999999999942
2.6838,200
2.6844,100
2.685,5.82076609134674e-11
2.6856,-100
2.6862,-200
2.6868,-299.999999999942
2.6874,-400
2.688,-500.000000000058
2.6886,-600
2.6892,-700
2.6898,-799.999999999942
2.6904,-900
2.691,-1000
2.6916,-1100
2.6922,-1200
2.6928,-1199.99999999994
2.6934,-1100
2.694,-1000
2.6946,-900.000000000058
2.6952,-800
2.6958,-700
2.6964,-600
2.697,-500
2.6976,-399.999999999942
2.6982,-300
2.6988,-200
2.6994,-100.000000000058
2.7,0
2.7006,0
2.7012,0
2.7018,0
2.7024,0
2.703,0
2.7036,0
2.7042,0
2.7048,0
2.7054,0
2.706,0
2.7066,0
2.7072,0
2.7078,0
2.7084,0
2.709,0
2.7096,0
2.7102,0
2.7108,0
2.7114,0
2.712,0
2.7126,0
2.7132,0
2.7138,0
2.7144,0
2.715,0
2.7156,0
2.7162,0
2.7168,0
2.7174,0
2.718,0
2.7186,0
2.7192,0
2.7198,0
2.7204,0
2.721,0
2.7216,0
2.7222,0
2.7228,0
2.7234,0
2.724,0
2.7246,0
2.7252,0
2.7258,0
2.7264,0
2.727,0
2.7276,0
2.7282,0
2.7288,0
2.7294,0
2.73,0
2.7306,0
2.7312,0
2.7318,0
2.7324,0
2.733,0
2.7336,0
2.7342,0
2.7348,0
2.7354,0
2.736,0
2.7366,0
2.7372,0
2.7378,0
2.7384,0
2.739,0
2.7396,0
2.7402,0
2.7408,0
2.7414,0
2.742,0
2.7426,0
2.7432,0
2.7438,0
2.7444,0
2.745,0
2.7456,0
2.7462,0
2.7468,0
2.7474,0
2.748,0
2.7486,0
2.7492,0
2.7498,0
2.7504,0
2.751,0
2.7516,0
2.7522,0
2.7528,0
2.7534,0
2.754,0
2.7546,0
2.7552,0
2.7558,0
2.7564,0
2.757,0
2.7576,0
2.7582,0
2.7588,0
2.7594,0
2.76,0
2.7606,0
2.7612,0
2.7618,0
2.7624,0
2.763,0
2.7636,0
2.7642,0
2.7648,0
2.7654,0
2.766,0
2.7666,0
2.7672,0
2.7678,0
2.7684,0
2.769,0
2.7696,0
2.7702,0
2.7708,0
2.7714,0
2.772,0
2.7726,0
2.7732,0
2.7738,0
2.7744,0
2.775,0
2.7756,0
2.7762,0
2.7768,0
2.7774,0
2.778,0
2.7786,0
2.7792,0
2.7798,0
2.7804,0
2.781,0
2.7816,0
2.7822,0
2.7828,0
2.7834,0
2.784,0
2.7846,52.6313758930456
2.7852,74.3282675569979
2.7858,90.905934288631
2.7864,104.822012578407
2.787,117.029857960783
2.7876,128.01909579781
2.7882,138.08098357374
2.7888,147.405546238018
2.7894,156.12494995996
2.79,164.335549530545
2.7906,172.11017860733
2.7912,179.50549357115
2.7918,186.566606780078
2.7924,193.330140458948
2.793,199.826313471363
2.7936,206.080411011016
2.7942,212.113846673472
2.7948,217.944947177034
2.7954,223.589543473342
2.796,229.061423645426
2.7966,234.372685173754
2.7972,239.534012636779
2.7978,244.554899287322
2.7984,249.443825784929
2.799,254.20840580171
2.7996,258.855505716039
2.8002,263.391343821319
2.8008,267.821573182088
2.8014,272.151351318878
2.802,276.385399196283
2.8026,280.528051457107
2.8032,284.58329944146
2.8038,288.55482821968
2.8044,292.446048627819
2.805,296.260125106966
2.8056,300
2.8062,303.668414842307
2.8068,307.267929089441
2.8074,310.800936649525
2.808,314.269680527354
2.8086,317.676265837634
2.8092,321.022671404304
2.8098,324.310760129544
2.8104,327.542288288526
2.811,330.718913883074
2.8116,333.842204168303
2.8122,336.913642450311
2.8128,339.934634239519
2.8134,342.906512832886
2.814,345.830544388576
2.8146,348.707932548461
2.8152,351.539822656808
2.8158,354.327305617522
2.8164,357.071421427142
2.817,359.773162416351
2.8176,362.433476228891
2.8182,365.053268563492
2.8188,367.63340570146
2.8194,370.174716840108
2.82,372.677996249965
2.8206,375.144005271786
2.8212,377.573474167693
2.8218,379.967103839267
2.8224,382.325567424117
2.823,384.649511781284
2.8236,386.939558874797
2.8242,389.196307063799
2.8248,391.420332306856
2.8254,393.612189287318
2.826,395.772412465972
2.8266,397.901517066661
2.8272,400
2.8278,402.068340729886
2.8284,404.107002087074
2.829,406.116431033707
2.8296,408.097059382377
2.8302,410.049304472969
2.8308,411.973569810276
2.8314,413.870245665128
2.832,415.739709641549
2.8326,417.582327212252
2.8332,419.398452224606
2.8338,421.188427379035
2.8344,422.952584681651
2.835,424.691245872796
2.8356,426.404722833039
2.8362,428.093317968044
2.8368,429.757324573638
2.8374,431.397027182303
2.838,433.012701892219
2.8386,434.604616679927
2.8392,436.173031697567
2.8398,437.71819955563
2.8404,439.240365592044
2.841,440.739768128401
2.8416,442.216638714053
2.8422,443.671202358761
2.8428,445.10367775454
2.8434,446.514277487294
2.844,447.903208238808
2.8446,449.27067097961
2.8452,450.616861153192
2.8458,451.94196885206
2.8464,453.246178986025
2.847,454.529671443155
2.8476,455.792621243748
2.8482,457.035198687701
2.8488,458.257569495584
2.8494,459.459894943757
2.85,460.642331993806
2.8506,461.80503341658
2.8512,462.948147911104
2.8518,464.071820218582
2.8524,465.176191231762
2.853,466.261398099848
2.8536,467.32757432918
2.8542,468.37484987988
2.8548,469.403351258637
2.8554,470.413201607814
2.856,471.404520791032
2.8566,472.377425475398
2.8572,473.332029210514
2.8578,474.268442504407
2.8584,475.186772896513
2.859,476.08712502785
2.8596,476.969600708473
2.8602,477.834298982347
2.8608,478.681316189734
2.8614,479.510746027193
2.862,480.322679605294
2.8626,481.117205504125
2.8632,481.894409826699
2.8638,482.654376250315
2.8644,483.397186075977
2.865,484.122918275927
2.8656,484.831649539365
2.8662,485.52345431643
2.8668,486.198404860494
2.8674,486.856571268843
2.868,487.498021521785
2.8686,488.122821520249
2.8692,488.731035121935
2.8698,489.322724176041
2.8704,489.897948556636
2.871,490.45676619471
2.8716,490.999233108953
2.8722,491.525403435288
2.8728,492.035329455212
2.8734,492.529061622977
2.874,493.006648591635
2.8746,493.468137237994
2.8752,493.913572686508
2.8758,494.34299833213
2.8764,494.756455862158
2.877,495.153985277108
2.8776,495.535624910617
2.8782,495.901411448428
2.8788,496.25137994646
2.8794,496.585563847986
2.88,496.903994999953
2.8806,497.206703668444
2.8812,497.49371855331
2.8818,497.765066801995
2.8824,498.020774022555
2.883,498.260864295892
2.8836,498.485360187225
2.8842,498.694282756802
2.8848,498.887651569859
2.8854,499.065484705856
2.886,499.227798766984
2.8866,499.374608885955
2.8872,499.505928733089
2.8878,499.621770522709
2.8884,499.722145018832
2.889,499.807061540183
2.8896,499.876527964533
2.8902,499.930550732355
2.8908,499.969134849812
2.8914,499.992283891079
2.892,500
2.8926,499.992283891079
2.8932,499.969134849812
2.8938,499.930550732355
2.8944,499.876527964533
2.895,499.807061540183
2.8956,499.722145018832
2.8962,499.621770522709
2.8968,499.505928733089
2.8974,499.374608885955
2.898,499.227798766984
2.8986,499.065484705856
2.8992,498.887651569859
2.8998,498.694282756802
2.9004,498.485360187225
2.901,498.260864295892
2.9016,498.020774022555
2.9022,497.765066801995
2.9028,497.49371855331
2.9034,497.206703668444
2.904,496.903994999953
2.9046,496.585563847986
2.9052,496.25137994646
2.9058,495.901411448428
2.9064,495.535624910617
2.907,495.153985277108
2.9076,494.756455862158
2.9082,494.34299833213
2.9088,493.913572686508
2.9094,493.468137237994
2.91,493.006648591635
2.9106,492.529061622977
2.9112,492.035329455212
2.9118,491.525403435288
2.9124,490.999233108953
2.913,490.45676619471
2.9136,489.897948556636
2.9142,489.322724176041
2.9148,488.731035121935
2.9154,488.122821520249
2.916,487.498021521785
2.9166,486.856571268843
2.9172,486.198404860494
2.9178,485.52345431643
2.9184,484.831649539365
2.919,484.122918275927
2.9196,483.397186075977
2.9202,482.654376250315
2.9208,481.894409826699
2.9214,481.117205504125
2.922,480.322679605294
2.9226,479.510746027193
2.9232,478.681316189734
2.9238,477.834298982347
2.9244,476.969600708473
2.925,476.08712502785
2.9256,475.186772896513
2.9262,474.268442504407
2.9268,473.332029210514
2.9274,472.377425475398
2.928,471.404520791032
2.9286,470.413201607814
2.9292,469.403351258637
2.9298,468.37484987988
2.9304,467.32757432918
2.931,466.261398099848
2.9316,465.176191231762
2.9322,464.071820218582
2.9328,462.948147911104
2.9334,461.80503341658
2.934,460.642331993806
2.9346,459.459894943757
2.9352,458.257569495584
2.9358,457.035198687701
2.9364,455.792621243748
2.937,454.529671443155
2.9376,453.246178986025
2.9382,451.94196885206
2.9388,450.616861153192
2.9394,449.27067097961
2.94,447.903208238808
2.9406,446.514277487294
2.9412,445.10367775454
2.9418,443.671202358761
2.9424,442.216638714053
2.943,440.739768128401
2.9436,439.240365592044
2.9442,437.71819955563
2.9448,436.173031697567
2.9454,434.604616679927
2.946,433.012701892219
2.9466,431.397027182303
2.9472,429.757324573638
2.9478,428.093317968044
2.9484,426.404722833039
2.949,424.691245872796
2.9496,422.952584681651
2.9502,421.188427379035
2.9508,419.398452224606
2.9514,417.582327212252
2.952,415.739709641549
2.9526,413.870245665128
2.9532,411.973569810276
2.9538,410.049304472969
2.9544,408.097059382377
2.955,406.116431033707
2.9556,404.107002087074
2.9562,402.068340729886
2.9568,400
2.9574,397.901517066661
2.958,395.772412465972
2.9586,393.612189287318
2.9592,391.420332306856
2.9598,389.196307063799
2.9604,386.939558874797
2.961,384.649511781284
2.9616,382.325567424117
2.9622,379.967103839267
2.9628,377.573474167693
2.9634,375.144005271786
2.964,372.677996249965
2.9646,370.174716840108
2.9652,367.63340570146
2.9658,365.053268563492
2.9664,362.433476228891
2.967,359.773162416351
2.9676,357.071421427142
2.9682,354.327305617522
2.9688,351.539822656808
2.9694,348.707932548461
2.97,345.830544388576
2.9706,342.906512832886
2.9712,339.934634239519
2.9718,336.913642450311
2.9724,333.842204168303
2.973,330.718913883074
2.9736,327.542288288526
2.9742,324.310760129544
2.9748,321.022671404304
2.9754,317.676265837634
2.976,314.269680527354
2.9766,310.800936649525
2.9772,307.267929089441
2.9778,303.668414842307
2.9784,300
2.979,296.260125106966
2.9796,292.446048627819
2.9802,288.55482821968
2.9808,284.58329944146
2.9814,280.528051457107
2.982,276.385399196283
2.9826,272.151351318878
2.9832,267.821573182088
2.9838,263.391343821319
2.9844,258.855505716039
2.985,254.20840580171
2.9856,249.443825784929
2.9862,244.554899287322
2.9868,239.534012636779
2.9874,234.372685173754
2.988,229.061423645426
2.9886,223.589543473342
2.9892,217.944947177034
2.9898,212.113846673472
2.9904,206.080411011016
2.991,199.826313471363
2.9916,193.330140458948
2.9922,186.566606780078
2.9928,179.50549357115
2.9934,172.11017860733
2.994,164.335549530545
2.9946,156.12494995996
2.9952,147.405546238018
2.9958,138.08098357374
2.9964,128.01909579781
2.997,117.029857960783
2.9976,104.822012578407
2.9982,90.905934288631
2.9988,74.3282675569979
2.9994,52.6313758930456
3,0
3,0
3.00055555555556,0
3.00111111111111,0
3.00166666666667,0
3.00222222222222,0
3.00277777777778,0
3.00333333333333,0
3.00388888888889,0
3.00444444444444,0
3.005,0
3.00555555555556,0
3.00611111111111,0
3.00666666666667,0
3.00722222222222,0
3.00777777777778,0
3.00833333333333,0
3.00888888888889,0
3.00944444444444,0
3.01,0
3.01055555555556,0
3.01111111111111,0
3.01166666666667,0
3.01222222222222,0
3.01277777777778,0
3.01333333333333,0
3.01388888888889,0
3.01444444444444,0
3.015,0
3.01555555555556,0
3.01611111111111,0
3.01666666666667,0
3.01722222222222,0
3.01777777777778,0
3.01833333333333,0
3.01888888888889,0
3.01944444444444,0
3.02,0
3.02055555555556,0
3.02111111111111,0
3.02166666666667,0
3.02222222222222,0
3.02277777777778,0
3.02333333333333,0
3.02388888888889,0
3.02444444444444,0
3.025,0
3.02555555555556,0
3.02611111111111,0
3.02666666666667,0
3.02722222222222,0
3.02777777777778,0
3.02833333333333,0
3.02888888888889,0
3.02944444444444,0
3.03,0
3.03055555555556,0
3.03111111111111,0
3.03166666666667,0
3.03222222222222,0
3.03277777777778,0
3.03333333333333,0
3.03388888888889,0
3.03444444444444,0
3.035,0
3.03555555555556,0
3.03611111111111,0
3.03666666666667,0
3.03722222222222,0
3.03777777777778,0
3.03833333333333,0
3.03888888888889,0
3.03944444444444,0
3.04,0
3.04055555555556,0
3.04111111111111,0
3.04166666666667,0
3.04222222222222,0
3.04277777777778,0
3.04333333333333,0
3.04388888888889,0
3.04444444444444,0
3.045,0
3.04555555555556,0
3.04611111111111,0
3.04666666666667,0
3.04722222222222,0
3.04777777777778,0
3.04833333333333,0
3.04888888888889,0
3.04944444444444,0
3.05,0
3.05055555555556,0
3.05111111111111,0
3.05166666666667,0
3.05222222222222,0
3.05277777777778,0
3.05333333333333,0
3.05388888888889,0
3.05444444444444,0
3.055,0
3.05555555555556,0
3.05611111111111,0
3.05666666666667,0
3.05722222222222,0
3.05777777777778,0
3.05833333333333,0
3.05888888888889,0
3.05944444444444,0
3.06,0
3.06055555555556,0
3.06111111111111,0
3.06166666666667,0
3.06222222222222,0
3.06277777777778,0
3.06333333333333,0
3.06388888888889,0
3.06444444444444,0
3.065,0
3.06555555555556,0
3.06611111111111,0
3.06666666666667,0
3.06722222222222,0
3.06777777777778,0
3.06833333333333,0
3.06888888888889,0
3.06944444444444,0
3.07,0
3.07055555555556,0
3.07111111111111,0
3.07166666666667,0
3.07222222222222,0
3.07277777777778,0
3.07333333333333,0
3.07388888888889,0
3.07444444444444,0
3.075,0
3.07555555555556,0
3.07611111111111,0
3.07666666666667,0
3.07722222222222,0
3.07777777777778,0
3.07833333333333,0
3.07888888888889,0
3.07944444444444,0
3.08,0
3.08055555555556,0
3.08111111111111,0
3.08166666666667,0
3.08222222222222,0
3.08277777777778,0
3.08333333333333,0
3.08388888888889,0
3.08444444444444,0
3.085,0
3.08555555555556,0
3.08611111111111,0
3.08666666666667,0
3.08722222222222,0
3.08777777777778,0
3.08833333333333,0
3.08888888888889,0
3.08944444444444,0
3.09,0
3.09055555555556,0
3.09111111111111,0
3.09166666666667,0
3.09222222222222,0
3.09277777777778,0
3.09333333333333,0
3.09388888888889,0
3.09444444444444,0
3.095,0
3.09555555555556,0
3.09611111111111,0
3.09666666666667,0
3.09722222222222,0
3.09777777777778,0
3.09833333333333,0
3.09888888888889,0
3.09944444444444,0
3.1,0
3.10055555555556,0
3.10111111111111,0
3.10166666666667,0
3.10222222222222,0
3.10277777777778,0
3.10333333333333,0
3.10388888888889,0
3.10444444444444,0
3.105,0
3.10555555555556,0
3.10611111111111,0
3.10666666666667,0
3.10722222222222,0
3.10777777777778,0
3.10833333333333,0
3.10888888888889,0
3.10944444444444,0
3.11,0
3.11055555555556,0
3.11111111111111,0
3.11166666666667,0
3.11222222222222,0
3.11277777777778,0
3.11333333333333,0
3.11388888888889,0
3.11444444444444,0
3.115,0
3.11555555555556,0
3.11611111111111,0
3.11666666666667,0
3.11722222222222,0
3.11777777777778,0
3.11833333333333,0
3.11888888888889,0
3.11944444444444,0
3.12,0
3.12055555555556,0
3.12111111111111,0
3.12166666666667,0
3.12222222222222,0
3.12277777777778,0
3.12333333333333,0
3.12388888888889,0
3.12444444444444,0
3.125,0
3.12555555555556,0
3.12611111111111,0
3.12666666666667,0
3.12722222222222,0
3.12777777777778,0
3.12833333333333,0
3.12888888888889,0
3.12944444444444,0
3.13,0
3.13055555555556,0
3.13111111111111,0
3.13166666666667,0
3.13222222222222,0
3.13277777777778,0
3.13333333333333,0
3.13388888888889,0
3.13444444444444,0
3.135,0
3.13555555555556,0
3.13611111111111,0
3.13666666666667,0
3.13722222222222,0
3.13777777777778,0
3.13833333333333,0
3.13888888888889,0
3.13944444444444,0
3.14,0
3.14055555555556,0
3.14111111111111,0
3.14166666666667,0
3.14222222222222,0
3.14277777777778,0
3.14333333333333,0
3.14388888888889,0
3.14444444444444,0
3.145,0
3.14555555555556,0
3.14611111111111,0
3.14666666666667,0
3.14722222222222,0
3.14777777777778,0
3.14833333333333,0
3.14888888888889,0
3.14944444444444,0
3.15,0
3.15055555555556,0
3.15111111111111,0
3.15166666666667,0
3.15222222222222,0
3.15277777777778,0
3.15333333333333,0
3.15388888888889,0
3.15444444444444,0
3.155,0
3.15555555555556,0
3.15611111111111,0
3.15666666666667,0
3.15722222222222,0
3.15777777777778,0
3.15833333333333,0
3.15888888888889,0
3.15944444444444,0
3.16,0
3.16055555555556,0
3.16111111111111,0
3.16166666666667,0
3.16222222222222,0
3.16277777777778,0
3.16333333333333,0
3.16388888888889,0
3.16444444444444,0
3.165,0
3.16555555555556,0
3.16611111111111,0
3.16666666666667,0
3.16722222222222,0
3.16777777777778,0
3.16833333333333,0
3.16888888888889,0
3.16944444444444,0
3.17,0
3.17055555555556,0
3.17111111111111,0
3.17166666666667,0
3.17222222222222,0
3.17277777777778,0
3.17333333333333,0
3.17388888888889,0
3.17444444444444,0
3.175,0
3.17555555555556,0
3.17611111111111,0
3.17666666666667,0
3.17722222222222,0
3.17777777777778,0
3.17833333333333,0
3.17888888888889,0
3.17944444444444,0
3.18,0
3.18055555555556,0
3.18111111111111,0
3.18166666666667,0
3.18222222222222,0
3.18277777777778,0
3.18333333333333,0
3.18388888888889,0
3.18444444444444,0
3.185,0
3.18555555555556,0
3.18611111111111,0
3.18666666666667,0
3.18722222222222,0
3.18777777777778,0
3.18833333333333,0
3.18888888888889,0
3.18944444444444,0
3.19,0
3.19055555555556,0
3.19111111111111,0
3.19166666666667,0
3.19222222222222,0
3.19277777777778,0
3.19333333333333,0
3.19388888888889,0
3.19444444444444,0
3.195,0
3.19555555555556,0
3.19611111111111,0
3.19666666666667,0
3.19722222222222,0
3.19777777777778,0
3.19833333333333,0
3.19888888888889,0
3.19944444444444,0
3.2,0
3.20055555555556,0
3.20111111111111,0
3.20166666666667,0
3.20222222222222,0
3.20277777777778,0
3.20333333333333,0
3.20388888888889,0
3.20444444444444,0
3.205,0
3.20555555555556,0
3.20611111111111,0
3.20666666666667,0
3.20722222222222,0
3.20777777777778,0
3.20833333333333,0
3.20888888888889,0
3.20944444444444,0
3.21,0
3.21055555555556,0
3.21111111111111,0
3.21166666666667,0
3.21222222222222,0
3.21277777777778,0
3.21333333333333,0
3.21388888888889,0
3.21444444444444,0
3.215,0
3.21555555555556,0
3.21611111111111,0
3.21666666666667,0
3.21722222222222,0
3.21777777777778,0
3.21833333333333,0
3.21888888888889,0
3.21944444444444,0
3.22,0
3.22055555555556,0
3.22111111111111,0
3.22166666666667,0
3.22222222222222,0
3.22277777777778,0
3.22333333333333,0
3.22388888888889,0
3.22444444444444,0
3.225,0
3.22555555555556,0
3.22611111111111,0
3.22666666666667,0
3.22722222222222,0
3.22777777777778,0
3.22833333333333,0
3.22888888888889,0
3.22944444444444,0
3.23,0
3.23055555555556,0
3.23111111111111,0
3.23166666666667,0
3.23222222222222,0
3.23277777777778,0
3.23333333333333,0
3.23388888888889,0
3.23444444444444,0
3.235,0
3.23555555555556,0
3.23611111111111,0
3.23666666666667,0
3.23722222222222,0
3.23777777777778,0
3.23833333333333,0
3.23888888888889,0
3.23944444444444,0
3.24,0
3.24055555555556,0
3.24111111111111,0
3.24166666666667,0
3.24222222222222,0
3.24277777777778,0
3.24333333333333,0
3.24388888888889,0
3.24444444444444,0
3.245,0
3.24555555555556,0
3.24611111111111,0
3.24666666666667,0
3.24722222222222,0
3.24777777777778,0
3.24833333333333,0
3.24888888888889,0
3.24944444444444,0
3.25,0
3.25055555555556,0
3.25111111111111,0
3.25166666666667,0
3.25222222222222,0
3.25277777777778,0
3.25333333333333,0
3.25388888888889,0
3.25444444444444,0
3.255,0
3.25555555555556,0
3.25611111111111,0
3.25666666666667,0
3.25722222222222,0
3.25777777777778,0
3.25833333333333,0
3.25888888888889,0
3.25944444444444,0
3.26,0
3.26055555555556,0
3.26111111111111,0
3.26166666666667,0
3.26222222222222,0
3.26277777777778,0
3.26333333333333,0
3.26388888888889,0
3.26444444444444,0
3.265,0
3.26555555555556,0
3.26611111111111,0
3.26666666666667,0
3.26722222222222,0
3.26777777777778,0
3.26833333333333,0
3.26888888888889,0
3.26944444444444,0
3.27,0
3.27055555555556,0
3.27111111111111,0
3.27166666666667,0
3.27222222222222,0
3.27277777777778,0
3.27333333333333,0
3.27388888888889,0
3.27444444444444,0
3.275,0
3.27555555555556,0
3.27611111111111,0
3.27666666666667,0
3.27722222222222,0
3.27777777777778,0
3.27833333333333,5
3.27888888888889,10
3.27944444444444,15
3.28,20
3.28055555555556,25
3.28111111111111,30
3.28166666666667,35
3.28222222222222,40
3.28277777777778,45
3.28333333333333,50
3.28388888888889,55
3.28444444444444,60
3.285,65
3.28555555555556,70
3.28611111111111,75
3.28666666666667,80
3.28722222222222,85
3.28777777777778,90
3.28833333333333,95
3.28888888888889,100
3.28944444444444,105
3.29,110
3.29055555555556,115
3.29111111111111,120
3.29166666666667,125
3.29222222222222,130
3.29277777777778,135
3.29333333333333,140
3.29388888888889,145
3.29444444444444,150
3.295,155
3.29555555555556,160
3.29611111111111,165
3.29666666666667,170
3.29722222222222,175
3.29777777777778,180
3.29833333333333,185
3.29888888888889,190
3.29944444444444,195
3.3,200
3.30055555555556,205
3.30111111111111,210
3.30166666666667,215
3.30222222222222,220
3.30277777777778,225
3.30333333333333,230
3.30388888888889,235
3.30444444444444,240
3.305,245
3.30555555555556,250
3.30611111111111,255
3.30666666666667,260
3.30722222222222,265
3.30777777777778,270
3.30833333333333,275
3.30888888888889,280
3.30944444444444,285
3.31,290
3.31055555555556,295
3.31111111111111,300
3.31166666666667,305
3.31222222222222,310
3.31277777777778,315
3.31333333333333,320
3.31388888888889,325
3.31444444444444,330
3.315,335
3.31555555555556,340
3.31611111111111,345
3.31666666666667,350
3.31722222222222,355
3.31777777777778,360
3.31833333333333,365
3.31888888888889,370
3.31944444444444,375
3.32,380
3.32055555555556,385
3.32111111111111,390
3.32166666666667,395
3.32222222222222,400
3.32277777777778,405
3.32333333333333,410
3.32388888888889,415
3.32444444444444,420
3.325,425
3.32555555555556,430
3.32611111111111,435
3.32666666666667,435
3.32722222222222,430
3.32777777777778,425
3.32833333333333,420
3.32888888888889,415
3.32944444444444,410
3.33,405
3.33055555555556,400
3.33111111111111,395
3.33166666666667,390
3.33222222222222,385
3.33277777777778,380
3.33333333333333,375
3.33388888888889,370
3.33444444444444,365
3.335,360
3.33555555555556,355
3.33611111111111,350
3.33666666666667,345
3.33722222222222,340
3.33777777777778,335
3.33833333333333,330
3.33888888888889,325
3.33944444444444,320
3.34,315
3.34055555555556,310
3.34111111111111,305
3.34166666666667,300
3.34222222222222,295
3.34277777777778,290
3.34333333333333,285
3.34388888888889,280
3.34444444444444,275
3.345,270
3.34555555555556,265
3.34611111111111,260
3.34666666666667,255
3.34722222222222,250
3.34777777777778,245
3.34833333333333,240
3.34888888888889,235
3.34944444444444,230
3.35,225
3.35055555555556,220
3.35111111111111,215
3.35166666666667,210
3.35222222222222,205
3.35277777777778,200
3.35333333333333,195
3.35388888888889,190
3.35444444444444,185
3.355,180
3.35555555555556,175
3.35611111111111,170
3.35666666666667,165
3.35722222222222,160
3.35777777777778,155
3.35833333333333,150
3.35888888888889,145
3.35944444444444,140
3.36,135
3.36055555555556,130
3.36111111111111,125
3.36166666666667,120
3.36222222222222,115
3.36277777777778,110
3.36333333333333,105
3.36388888888889,99.9999999999995
3.36444444444444,94.9999999999995
3.365,89.9999999999995
3.36555555555556,84.9999999999995
3.36611111111111,79.9999999999995
3.36666666666667,74.9999999999995
3.36722222222222,69.9999999999995
3.36777777777778,64.9999999999995
3.36833333333333,59.9999999999995
3.36888888888889,54.9999999999995
3.36944444444444,49.9999999999995
3.37,44.9999999999995
3.37055555555556,39.9999999999995
3.37111111111111,34.9999999999995
3.37166666666667,29.9999999999995
3.37222222222222,24.9999999999995
3.37277777777778,19.9999999999995
3.37333333333333,14.9999999999995
3.37388888888889,9.99999999999955
3.37444444444444,4.99999999999955
3.375,-4.54747350886464e-13
3.37555555555556,-5.00000000000045
3.37611111111111,-10.0000000000005
3.37666666666667,-15.0000000000005
3.37722222222222,-20.0000000000005
3.37777777777778,-25.0000000000005
3.37833333333333,-30.0000000000005
3.37888888888889,-35.0000000000005
3.37944444444444,-40.0000000000005
3.38,-45.0000000000005
3.38055555555556,-50.0000000000005
3.38111111111111,-55.0000000000005
3.38166666666667,-60.0000000000005
3.38222222222222,-60.0000000000005
3.38277777777778,-55.0000000000005
3.38333333333333,-50.0000000000005
3.38388888888889,-45.0000000000005
3.38444444444444,-40.0000000000005
3.385,-35.0000000000005
3.38555555555556,-30.0000000000005
3.38611111111111,-25.0000000000005
3.38666666666667,-20.0000000000005
3.38722222222222,-15.0000000000005
3.38777777777778,-10.0000000000005
3.38833333333333,-5.00000000000045
3.38888888888889,0
3.38944444444444,0
3.39,0
3.39055555555556,0
3.39111111111111,0
3.39166666666667,0
3.39222222222222,0
3.39277777777778,0
3.39333333333333,0
3.39388888888889,0
3.39444444444444,0
3.395,0
3.39555555555556,0
3.39611111111111,0
3.39666666666667,0
3.39722222222222,0
3.39777777777778,0
3.39833333333333,0
3.39888888888889,0
3.39944444444444,0
3.4,0
3.40055555555556,0
3.40111111111111,0
3.40166666666667,0
3.40222222222222,0
3.40277777777778,0
3.40333333333333,0
3.40388888888889,0
3.40444444444444,0
3.405,0
3.40555555555556,0
3.40611111111111,0
3.40666666666667,0
3.40722222222222,0
3.40777777777778,0
3.40833333333333,0
3.40888888888889,0
3.40944444444444,0
3.41,0
3.41055555555556,0
3.41111111111111,0
3.41166666666667,0
3.41222222222222,0
3.41277777777778,0
3.41333333333333,0
3.41388888888889,0
3.41444444444444,0
3.415,0
3.41555555555556,0
3.41611111111111,0
3.41666666666667,0
3.41722222222222,0
3.41777777777778,0
3.41833333333333,0
3.41888888888889,0
3.41944444444444,0
3.42,0
3.42055555555556,0
3.42111111111111,0
3.42166666666667,0
3.42222222222222,0
3.42277777777778,0
3.42333333333333,0
3.42388888888889,0
3.42444444444444,0
3.425,0
3.42555555555556,0
3.42611111111111,0
3.42666666666667,0
3.42722222222222,0
3.42777777777778,0
3.42833333333333,0
3.42888888888889,0
3.42944444444444,0
3.43,0
3.43055555555556,0
3.43111111111111,0
3.43166666666667,0
3.43222222222222,0
3.43277777777778,0
3.43333333333333,0
3.43388888888889,0
3.43444444444444,0
3.435,0
3.43555555555556,0
3.43611111111111,0
3.43666666666667,0
3.43722222222222,0
3.43777777777778,0
3.43833333333333,0
3.43888888888889,0
3.43944444444444,0
3.44,0
3.44055555555556,0
3.44111111111111,0
3.44166666666667,0
3.44222222222222,0
3.44277777777778,0
3.44333333333333,0
3.44388888888889,0
3.44444444444444,0
3.445,0
3.44555555555556,0
3.44611111111111,0
3.44666666666667,0
3.44722222222222,0
3.44777777777778,0
3.44833333333333,0
3.44888888888889,0
3.44944444444444,0
3.45,0
3.45055555555556,0
3.45111111111111,0
3.45166666666667,0
3.45222222222222,0
3.45277777777778,0
3.45333333333333,0
3.45388888888889,0
3.45444444444444,0
3.455,0
3.45555555555556,0
3.45611111111111,0
3.45666666666667,0
3.45722222222222,0
3.45777777777778,0
3.45833333333333,0
3.45888888888889,0
3.45944444444444,0
3.46,0
3.46055555555556,0
3.46111111111111,0
3.46166666666667,0
3.46222222222222,0
3.46277777777778,0
3.46333333333333,0
3.46388888888889,0
3.46444444444444,0
3.465,0
3.46555555555556,0
3.46611111111111,0
3.46666666666667,0
3.46722222222222,52.6313758930456
3.46777777777778,74.3282675569979
3.46833333333333,90.905934288631
3.46888888888889,104.822012578407
3.46944444444444,117.029857960783
3.47,128.01909579781
3.47055555555556,138.08098357374
3.47111111111111,147.405546238018
3.47166666666667,156.12494995996
3.47222222222222,164.335549530545
3.47277777777778,172.11017860733
3.47333333333333,179.50549357115
3.47388888888889,186.566606780078
3.47444444444444,193.330140458948
3.475,199.826313471363
3.47555555555556,206.080411011016
3.47611111111111,212.113846673472
3.47666666666667,217.944947177034
3.47722222222222,223.589543473342
3.47777777777778,229.061423645426
3.47833333333333,234.372685173754
3.47888888888889,239.534012636779
3.47944444444444,244.554899287322
3.48,249.443825784929
3.48055555555556,254.20840580171
3.48111111111111,258.855505716039
3.48166666666667,263.391343821319
3.48222222222222,267.821573182088
3.48277777777778,272.151351318878
3.48333333333333,276.385399196283
3.48388888888889,280.528051457107
3.48444444444444,284.58329944146
3.485,288.55482821968
3.48555555555556,292.446048627819
3.48611111111111,296.260125106966
3.48666666666667,300
3.48722222222222,303.668414842307
3.48777777777778,307.267929089441
3.48833333333333,310.800936649525
3.48888888888889,314.269680527354
3.48944444444444,317.676265837634
3.49,321.022671404304
3.49055555555556,324.310760129544
3.49111111111111,327.542288288526
3.49166666666667,330.718913883074
3.49222222222222,333.842204168303
3.49277777777778,336.913642450311
3.49333333333333,339.934634239519
3.49388888888889,342.906512832886
3.49444444444444,345.830544388576
3.495,348.707932548461
3.49555555555556,351.539822656808
3.49611111111111,354.327305617522
3.49666666666667,357.071421427142
3.49722222222222,359.773162416351
3.49777777777778,362.433476228891
3.49833333333333,365.053268563492
3.49888888888889,367.63340570146
3.49944444444444,370.174716840108
3.5,372.677996249965
3.50055555555556,375.144005271786
3.50111111111111,377.573474167693
3.50166666666667,379.967103839267
3.50222222222222,382.325567424117
3.50277777777778,384.649511781284
3.50333333333333,386.939558874797
3.50388888888889,389.196307063799
3.50444444444444,391.420332306856
3.505,393.612189287318
3.50555555555556,395.772412465972
3.50611111111111,397.901517066661
3.50666666666667,400
3.50722222222222,402.068340729886
3.50777777777778,404.107002087074
3.50833333333333,406.116431033707
3.50888888888889,408.097059382377
3.50944444444444,410.049304472969
3.51,411.973569810276
3.51055555555556,413.870245665128
3.51111111111111,415.739709641549
3.51166666666667,417.582327212252
3.51222222222222,419.398452224606
3.51277777777778,421.188427379035
3.51333333333333,422.952584681651
3.51388888888889,424.691245872796
3.51444444444444,426.404722833039
3.515,428.093317968044
3.51555555555556,429.757324573638
3.51611111111111,431.397027182303
3.51666666666667,433.012701892219
3.51722222222222,434.604616679927
3.51777777777778,436.173031697567
3.51833333333333,437.71819955563
3.51888888888889,439.240365592044
3.51944444444444,440.739768128401
3.52,442.216638714053
3.52055555555556,443.671202358761
3.52111111111111,445.10367775454
3.52166666666667,446.514277487294
3.52222222222222,447.903208238808
3.52277777777778,449.27067097961
3.52333333333333,450.616861153192
3.52388888888889,451.94196885206
3.52444444444444,453.246178986025
3.525,454.529671443155
3.52555555555556,455.792621243748
3.52611111111111,457.035198687701
3.52666666666667,458.257569495584
3.52722222222222,459.459894943757
3.52777777777778,460.642331993806
3.52833333333333,461.80503341658
3.52888888888889,462.948147911104
3.52944444444444,464.071820218582
3.53,465.176191231762
3.53055555555556,466.261398099848
3.53111111111111,467.32757432918
3.53166666666667,468.37484987988
3.53222222222222,469.403351258637
3.53277777777778,470.413201607814
3.53333333333333,471.404520791032
3.53388888888889,472.377425475398
3.53444444444444,473.332029210514
3.535,474.268442504407
3.53555555555556,475.186772896513
3.53611111111111,476.08712502785
3.53666666666667,476.969600708473
3.53722222222222,477.834298982347
3.53777777777778,478.681316189734
3.53833333333333,479.510746027193
3.53888888888889,480.322679605294
3.53944444444444,481.117205504125
3.54,481.894409826699
3.54055555555556,482.654376250315
3.54111111111111,483.397186075977
3.54166666666667,484.122918275927
3.54222222222222,484.831649539365
3.54277777777778,485.52345431643
3.54333333333333,486.198404860494
3.54388888888889,486.856571268843
3.54444444444444,487.498021521785
3.545,488.122821520249
3.54555555555556,488.731035121935
3.54611111111111,489.322724176041
3.54666666666667,489.897948556636
3.54722222222222,490.45676619471
3.54777777777778,490.999233108953
3.54833333333333,491.525403435288
3.54888888888889,492.035329455212
3.54944444444444,492.529061622977
3.55,493.006648591635
3.55055555555556,493.468137237994
3.55111111111111,493.913572686508
3.55166666666667,494.34299833213
3.55222222222222,494.756455862158
3.55277777777778,495.153985277108
3.55333333333333,495.535624910617
3.55388888888889,495.901411448428
3.55444444444444,496.25137994646
3.555,496.585563847986
3.55555555555556,496.903994999953
3.55611111111111,497.206703668444
3.55666666666667,497.49371855331
3.55722222222222,497.765066801995
3.55777777777778,498.020774022555
3.55833333333333,498.260864295892
3.55888888888889,498.485360187225
3.55944444444444,498.694282756802
3.56,498.887651569859
3.56055555555556,499.065484705856
3.56111111111111,499.227798766984
3.56166666666667,499.374608885955
3.56222222222222,499.505928733089
3.56277777777778,499.621770522709
3.56333333333333,499.722145018832
3.56388888888889,499.807061540183
3.56444444444444,499.876527964533
3.565,499.930550732355
3.56555555555556,499.969134849812
3.56611111111111,499.992283891079
3.56666666666667,500
3.56722222222222,499.992283891079
3.56777777777778,499.969134849812
3.56833333333333,499.930550732355
3.56888888888889,499.876527964533
3.56944444444444,499.807061540183
3.57,499.722145018832
3.57055555555556,499.621770522709
3.57111111111111,499.505928733089
3.57166666666667,499.374608885955
3.57222222222222,499.227798766984
3.57277777777778,499.065484705856
3.57333333333333,498.887651569859
3.57388888888889,498.694282756802
3.57444444444444,498.485360187225
3.575,498.260864295892
3.57555555555556,498.020774022555
3.57611111111111,497.765066801995
3.57666666666667,497.49371855331
3.57722222222222,497.206703668444
3.57777777777778,496.903994999953
3.57833333333333,496.585563847986
3.57888888888889,496.25137994646
3.57944444444444,495.901411448428
3.58,495.535624910617
3.58055555555556,495.153985277108
3.58111111111111,494.756455862158
3.58166666666667,494.34299833213
3.58222222222222,493.913572686508
3.58277777777778,493.468137237994
3.58333333333333,493.006648591635
3.58388888888889,492.529061622977
3.58444444444444,492.035329455212
3.585,491.525403435288
3.58555555555556,490.999233108953
3.58611111111111,490.45676619471
3.58666666666667,489.897948556636
3.58722222222222,489.322724176041
3.58777777777778,488.731035121935
3.58833333333333,488.122821520249
3.58888888888889,487.498021521785
3.58944444444444,486.856571268843
3.59,486.198404860494
3.59055555555556,485.52345431643
3.59111111111111,484.831649539365
3.59166666666667,484.122918275927
3.59222222222222,483.397186075977
3.59277777777778,482.654376250315
3.59333333333333,481.894409826699
3.59388888888889,481.117205504125
3.59444444444444,480.322679605294
3.595,479.510746027193
3.59555555555556,478.681316189734
3.59611111111111,477.834298982347
3.59666666666667,476.969600708473
3.59722222222222,476.08712502785
3.59777777777778,475.186772896513
3.59833333333333,474.268442504407
3.59888888888889,473.332029210514
3.59944444444444,472.377425475398
3.6,471.404520791032
3.60055555555556,470.413201607814
3.60111111111111,469.403351258637
3.60166666666667,468.37484987988
3.60222222222222,467.32757432918
3.60277777777778,466.261398099848
3.60333333333333,465.176191231762
3.60388888888889,464.071820218582
3.60444444444444,462.948147911104
3.605,461.80503341658
3.60555555555556,460.642331993806
3.60611111111111,459.459894943757
3.60666666666667,458.257569495584
3.60722222222222,457.035198687701
3.60777777777778,455.792621243748
3.60833333333333,454.529671443155
3.60888888888889,453.246178986025
3.60944444444444,451.94196885206
3.61,450.616861153192
3.61055555555556,449.27067097961
3.61111111111111,447.903208238808
3.61166666666667,446.514277487294
3.61222222222222,445.10367775454
3.61277777777778,443.671202358761
3.61333333333333,442.216638714053
3.61388888888889,440.739768128401
3.61444444444444,439.240365592044
3.615,437.71819955563
3.61555555555556,436.173031697567
3.61611111111111,434.604616679927
3.61666666666667,433.012701892219
3.61722222222222,431.397027182303
3.61777777777778,429.757324573638
3.61833333333333,428.093317968044
3.61888888888889,426.404722833039
3.61944444444444,424.691245872796
3.62,422.952584681651
3.62055555555556,421.188427379035
3.62111111111111,419.398452224606
3.62166666666667,417.582327212252
3.62222222222222,415.739709641549
3.62277777777778,413.870245665128
3.62333333333333,411.973569810276
3.62388888888889,410.049304472969
3.62444444444444,408.097059382377
3.625,406.116431033707
3.62555555555556,404.107002087074
3.62611111111111,402.068340729886
3.62666666666667,400
3.62722222222222,397.901517066661
3.62777777777778,395.772412465972
3.62833333333333,393.612189287318
3.62888888888889,391.420332306856
3.62944444444444,389.196307063799
3.63,386.939558874797
3.63055555555556,384.649511781284
3.63111111111111,382.325567424117
3.63166666666667,379.967103839267
3.63222222222222,377.573474167693
3.63277777777778,375.144005271786
3.63333333333333,372.677996249965
3.63388888888889,370.174716840108
3.63444444444444,367.63340570146
3.635,365.053268563492
3.63555555555556,362.433476228891
3.63611111111111,359.773162416351
3.63666666666667,357.071421427142
3.63722222222222,354.327305617522
3.63777777777778,351.539822656808
3.63833333333333,348.707932548461
3.63888888888889,345.830544388576
3.63944444444444,342.906512832886
3.64,339.934634239519
3.64055555555556,336.913642450311
3.64111111111111,333.842204168303
3.64166666666667,330.718913883074
3.64222222222222,327.542288288526
3.64277777777778,324.310760129544
3.64333333333333,321.022671404304
3.64388888888889,317.676265837634
3.64444444444444,314.269680527354
3.645,310.800936649525
3.64555555555556,307.267929089441
3.64611111111111,303.668414842307
3.64666666666667,300
3.64722222222222,296.260125106966
3.64777777777778,292.446048627819
3.64833333333333,288.55482821968
3.64888888888889,284.58329944146
3.64944444444444,280.528051457107
3.65,276.385399196283
3.65055555555556,272.151351318878
3.65111111111111,267.821573182088
3.65166666666667,263.391343821319
3.65222222222222,258.855505716039
3.65277777777778,254.20840580171
3.65333333333333,249.443825784929
3.65388888888889,244.554899287322
3.65444444444444,239.534012636779
3.655,234.372685173754
3.65555555555556,229.061423645426
3.65611111111111,223.589543473342
3.65666666666667,217.944947177034
3.65722222222222,212.113846673472
3.65777777777778,206.080411011016
3.65833333333333,199.826313471363
3.65888888888889,193.330140458948
3.65944444444444,186.566606780078
3.66,179.50549357115
3.66055555555556,172.11017860733
3.66111111111111,164.335549530545
3.66166666666667,156.12494995996
3.66222222222222,147.405546238018
3.66277777777778,138.08098357374
3.66333333333333,128.01909579781
3.66388888888889,117.029857960783
3.66444444444444,104.822012578407
3.665,90.905934288631
3.66555555555556,74.3282675569979
3.66611111111111,52.6313758930456
3.66666666666667,0
3.66722222222222,0
3.66777777777778,0
3.66833333333333,0
3.66888888888889,0
3.66944444444444,0
3.67,0
3.67055555555556,0
3.67111111111111,0
3.67166666666667,0
3.67222222222222,0
3.67277777777778,0
3.67333333333333,0
3.67388888888889,0
3.67444444444444,0
3.675,0
3.67555555555556,0
3.67611111111111,0
3.67666666666667,0
3.67722222222222,0
3.67777777777778,0
3.67833333333333,0
3.67888888888889,0
3.67944444444444,0
3.68,0
3.68055555555556,0
3.68111111111111,0
3.68166666666667,0
3.68222222222222,0
3.68277777777778,0
3.68333333333333,0
3.68388888888889,0
3.68444444444444,0
3.685,0
3.68555555555556,0
3.68611111111111,0
3.68666666666667,0
3.68722222222222,0
3.68777777777778,0
3.68833333333333,0
3.68888888888889,0
3.68944444444444,0
3.69,0
3.69055555555556,0
3.69111111111111,0
3.69166666666667,0
3.69222222222222,0
3.69277777777778,0
3.69333333333333,0
3.69388888888889,0
3.69444444444444,0
3.695,0
3.69555555555556,0
3.69611111111111,0
3.69666666666667,0
3.69722222222222,0
3.69777777777778,0
3.69833333333333,0
3.69888888888889,0
3.69944444444444,0
3.7,0
3.70055555555556,0
3.70111111111111,0
3.70166666666667,0
3.70222222222222,0
3.70277777777778,0
3.70333333333333,0
3.70388888888889,0
3.70444444444444,0
3.705,0
3.70555555555556,0
3.70611111111111,0
3.70666666666667,0
3.70722222222222,0
3.70777777777778,0
3.70833333333333,0
3.70888888888889,0
3.70944444444444,0
3.71,0
3.71055555555556,0
3.71111111111111,0
3.71166666666667,0
3.71222222222222,0
3.71277777777778,0
3.71333333333333,0
3.71388888888889,0
3.71444444444444,0
3.715,0
3.71555555555556,0
3.71611111111111,0
3.71666666666667,0
3.71722222222222,0
3.71777777777778,0
3.71833333333333,0
3.71888888888889,0
3.71944444444444,0
3.72,0
3.72055555555556,0
3.72111111111111,0
3.72166666666667,0
3.72222222222222,0
3.72277777777778,0
3.72333333333333,0
3.72388888888889,0
3.72444444444444,0
3.725,0
3.72555555555556,0
3.72611111111111,0
3.72666666666667,0
3.72722222222222,0
3.72777777777778,0
3.72833333333333,0
3.72888888888889,0
3.72944444444444,0
3.73,0
3.73055555555556,0
3.73111111111111,0
3.73166666666667,0
3.73222222222222,0
3.73277777777778,0
3.73333333333333,0
3.73388888888889,0
3.73444444444444,0
3.735,0
3.73555555555556,0
3.73611111111111,0
3.73666666666667,0
3.73722222222222,0
3.73777777777778,0
3.73833333333333,0
3.73888888888889,0
3.73944444444444,0
3.74,0
3.74055555555556,0
3.74111111111111,0
3.74166666666667,0
3.74222222222222,0
3.74277777777778,0
3.74333333333333,0
3.74388888888889,0
3.74444444444444,0
3.745,0
3.74555555555556,0
3.74611111111111,0
3.74666666666667,0
3.74722222222222,0
3.74777777777778,0
3.74833333333333,0
3.74888888888889,0
3.74944444444444,0
3.75,0
3.75055555555556,0
3.75111111111111,0
3.75166666666667,0
3.75222222222222,0
3.75277777777778,0
3.75333333333333,0
3.75388888888889,0
3.75444444444444,0
3.755,0
3.75555555555556,0
3.75611111111111,0
3.75666666666667,0
3.75722222222222,0
3.75777777777778,0
3.75833333333333,0
3.75888888888889,0
3.75944444444444,0
3.76,0
3.76055555555556,0
3.76111111111111,0
3.76166666666667,0
3.76222222222222,0
3.76277777777778,0
3.76333333333333,0
3.76388888888889,0
3.76444444444444,0
3.765,0
3.76555555555556,0
3.76611111111111,0
3.76666666666667,0
3.76722222222222,0
3.76777777777778,0
3.76833333333333,0
3.76888888888889,0
3.76944444444444,0
3.77,0
3.77055555555556,0
3.77111111111111,0
3.77166666666667,0
3.77222222222222,0
3.77277777777778,0
3.77333333333333,0
3.77388888888889,0
3.77444444444444,0
3.775,0
3.77555555555556,0
3.77611111111111,0
3.77666666666667,0
3.77722222222222,0
3.77777777777778,0
3.77833333333333,0
3.77888888888889,0
3.77944444444444,0
3.78,0
3.78055555555556,0
3.78111111111111,0
3.78166666666667,0
3.78222222222222,0
3.78277777777778,0
3.78333333333333,0
3.78388888888889,0
3.78444444444444,0
3.785,0
3.78555555555556,0
3.78611111111111,0
3.78666666666667,0
3.78722222222222,0
3.78777777777778,0
3.78833333333333,0
3.78888888888889,0
3.78944444444444,0
3.79,0
3.79055555555556,0
3.79111111111111,0
3.79166666666667,0
3.79222222222222,0
3.79277777777778,0
3.79333333333333,0
3.79388888888889,0
3.79444444444444,0
3.795,0
3.79555555555556,0
3.79611111111111,0
3.79666666666667,0
3.79722222222222,0
3.79777777777778,0
3.79833333333333,0
3.79888888888889,0
3.79944444444444,0
3.8,0
3.80055555555556,0
3.80111111111111,0
3.80166666666667,0
3.80222222222222,0
3.80277777777778,0
3.80333333333333,0
3.80388888888889,0
3.80444444444444,0
3.805,0
3.80555555555556,0
3.80611111111111,0
3.80666666666667,0
3.80722222222222,0
3.80777777777778,0
3.80833333333333,0
3.80888888888889,0
3.80944444444444,0
3.81,0
3.81055555555556,0
3.81111111111111,0
3.81166666666667,0
3.81222222222222,0
3.81277777777778,0
3.81333333333333,0
3.81388888888889,0
3.81444444444444,0
3.815,0
3.81555555555556,0
3.81611111111111,0
3.81666666666667,0
3.81722222222222,0
3.81777777777778,0
3.81833333333333,0
3.81888888888889,0
3.81944444444444,0
3.82,0
3.82055555555556,0
3.82111111111111,0
3.82166666666667,0
3.82222222222222,0
3.82277777777778,0
3.82333333333333,0
3.82388888888889,0
3.82444444444444,0
3.825,0
3.82555555555556,0
3.82611111111111,0
3.82666666666667,0
3.82722222222222,0
3.82777777777778,0
3.82833333333333,0
3.82888888888889,0
3.82944444444444,0
3.83,0
3.83055555555556,0
3.83111111111111,0
3.83166666666667,0
3.83222222222222,0
3.83277777777778,0
3.83333333333333,0
3.83388888888889,0
3.83444444444444,0
3.835,0
